# OpenSignals Text File Format. Version 1
# {"88:6B:0F:F0:D6:9F": {"position": 0, "device": "bitalino_rev", "device name": "88:6B:0F:F0:D6:9F", "device connection": "BTH88:6B:0F:F0:D6:9F", "sampling rate": 1000, "resolution": [4, 1, 1, 1, 1, 10, 10], "firmware version": 1282, "comments": "", "keywords": "", "mode": 0, "sync interval": 2, "date": "2025-10-22", "time": "13:53:29.215", "channels": [3, 4], "sensor": ["EMGBITREV", "EMGBITREV"], "label": ["A3", "A4"], "column": ["nSeq", "I1", "I2", "O1", "O2", "A3", "A4"], "special": [{}, {}], "digital IO": [0, 0, 1, 1], "convertedValues": 1}}
# EndOfHeader
0.0	0.0	0.0	0.0	0.0	0.01	-0.035	
1.0	0.0	0.0	0.0	0.0	0.006	-0.029	
2.0	0.0	0.0	0.0	0.0	0.01	-0.026	
3.0	0.0	0.0	0.0	0.0	0.003	-0.029	
4.0	0.0	0.0	0.0	0.0	0.0	-0.022	
5.0	0.0	0.0	0.0	0.0	0.006	-0.029	
6.0	0.0	0.0	0.0	0.0	-0.003	-0.061	
7.0	0.0	0.0	0.0	0.0	0.003	-0.054	
8.0	0.0	0.0	0.0	0.0	-0.01	-0.038	
9.0	0.0	0.0	0.0	0.0	-0.006	-0.026	
10.0	0.0	0.0	0.0	0.0	-0.013	-0.01	
11.0	0.0	0.0	0.0	0.0	-0.042	0.032	
12.0	0.0	0.0	0.0	0.0	-0.042	0.048	
13.0	0.0	0.0	0.0	0.0	-0.019	0.038	
14.0	0.0	0.0	0.0	0.0	0.0	0.019	
15.0	0.0	0.0	0.0	0.0	0.01	-0.003	
0.0	0.0	0.0	0.0	0.0	0.01	-0.006	
1.0	0.0	0.0	0.0	0.0	0.042	-0.01	
2.0	0.0	0.0	0.0	0.0	0.073	-0.013	
3.0	0.0	0.0	0.0	0.0	0.061	-0.019	
4.0	0.0	0.0	0.0	0.0	0.035	-0.026	
5.0	0.0	0.0	0.0	0.0	0.01	-0.032	
6.0	0.0	0.0	0.0	0.0	-0.013	-0.019	
7.0	0.0	0.0	0.0	0.0	-0.029	-0.026	
8.0	0.0	0.0	0.0	0.0	-0.022	-0.029	
9.0	0.0	0.0	0.0	0.0	-0.006	-0.035	
10.0	0.0	0.0	0.0	0.0	0.006	-0.057	
11.0	0.0	0.0	0.0	0.0	0.006	-0.045	
12.0	0.0	0.0	0.0	0.0	0.016	-0.035	
13.0	0.0	0.0	0.0	0.0	-0.003	-0.032	
14.0	0.0	0.0	0.0	0.0	-0.029	-0.016	
15.0	0.0	0.0	0.0	0.0	-0.064	0.022	
0.0	0.0	0.0	0.0	0.0	-0.051	0.042	
1.0	0.0	0.0	0.0	0.0	-0.048	0.035	
2.0	0.0	0.0	0.0	0.0	-0.035	0.026	
3.0	0.0	0.0	0.0	0.0	-0.029	0.006	
4.0	0.0	0.0	0.0	0.0	-0.006	-0.006	
5.0	0.0	0.0	0.0	0.0	0.006	-0.006	
6.0	0.0	0.0	0.0	0.0	0.019	-0.019	
7.0	0.0	0.0	0.0	0.0	0.01	-0.026	
8.0	0.0	0.0	0.0	0.0	0.016	-0.042	
9.0	0.0	0.0	0.0	0.0	0.026	-0.035	
10.0	0.0	0.0	0.0	0.0	0.035	-0.022	
11.0	0.0	0.0	0.0	0.0	0.026	-0.032	
12.0	0.0	0.0	0.0	0.0	0.006	-0.035	
13.0	0.0	0.0	0.0	0.0	0.019	-0.038	
14.0	0.0	0.0	0.0	0.0	0.01	-0.057	
15.0	0.0	0.0	0.0	0.0	0.01	-0.051	
0.0	0.0	0.0	0.0	0.0	0.01	-0.035	
1.0	0.0	0.0	0.0	0.0	0.003	-0.029	
2.0	0.0	0.0	0.0	0.0	-0.013	-0.006	
3.0	0.0	0.0	0.0	0.0	-0.032	0.038	
4.0	0.0	0.0	0.0	0.0	-0.029	0.045	
5.0	0.0	0.0	0.0	0.0	-0.013	0.035	
6.0	0.0	0.0	0.0	0.0	-0.01	0.019	
7.0	0.0	0.0	0.0	0.0	0.003	0.01	
8.0	0.0	0.0	0.0	0.0	0.022	-0.01	
9.0	0.0	0.0	0.0	0.0	0.045	-0.016	
10.0	0.0	0.0	0.0	0.0	0.054	-0.019	
11.0	0.0	0.0	0.0	0.0	0.035	-0.026	
12.0	0.0	0.0	0.0	0.0	0.019	-0.029	
13.0	0.0	0.0	0.0	0.0	0.01	-0.019	
14.0	0.0	0.0	0.0	0.0	-0.006	-0.026	
15.0	0.0	0.0	0.0	0.0	-0.022	-0.032	
0.0	0.0	0.0	0.0	0.0	-0.038	-0.038	
1.0	0.0	0.0	0.0	0.0	-0.016	-0.048	
2.0	0.0	0.0	0.0	0.0	-0.016	-0.064	
3.0	0.0	0.0	0.0	0.0	-0.013	-0.045	
4.0	0.0	0.0	0.0	0.0	-0.019	-0.022	
5.0	0.0	0.0	0.0	0.0	0.0	-0.026	
6.0	0.0	0.0	0.0	0.0	-0.016	-0.01	
7.0	0.0	0.0	0.0	0.0	-0.042	0.032	
8.0	0.0	0.0	0.0	0.0	-0.042	0.042	
9.0	0.0	0.0	0.0	0.0	-0.032	0.032	
10.0	0.0	0.0	0.0	0.0	-0.013	0.013	
11.0	0.0	0.0	0.0	0.0	0.0	-0.006	
12.0	0.0	0.0	0.0	0.0	0.01	-0.019	
13.0	0.0	0.0	0.0	0.0	0.019	-0.022	
14.0	0.0	0.0	0.0	0.0	0.038	-0.019	
15.0	0.0	0.0	0.0	0.0	0.042	-0.026	
0.0	0.0	0.0	0.0	0.0	0.032	-0.029	
1.0	0.0	0.0	0.0	0.0	0.013	-0.026	
2.0	0.0	0.0	0.0	0.0	0.006	-0.016	
3.0	0.0	0.0	0.0	0.0	-0.006	-0.022	
4.0	0.0	0.0	0.0	0.0	-0.016	-0.032	
5.0	0.0	0.0	0.0	0.0	-0.016	-0.042	
6.0	0.0	0.0	0.0	0.0	-0.003	-0.073	
7.0	0.0	0.0	0.0	0.0	-0.006	-0.048	
8.0	0.0	0.0	0.0	0.0	-0.006	-0.032	
9.0	0.0	0.0	0.0	0.0	0.003	-0.026	
10.0	0.0	0.0	0.0	0.0	-0.006	-0.003	
11.0	0.0	0.0	0.0	0.0	-0.029	0.035	
12.0	0.0	0.0	0.0	0.0	-0.022	0.054	
13.0	0.0	0.0	0.0	0.0	-0.019	0.038	
14.0	0.0	0.0	0.0	0.0	-0.013	0.022	
15.0	0.0	0.0	0.0	0.0	-0.003	0.003	
0.0	0.0	0.0	0.0	0.0	0.003	-0.016	
1.0	0.0	0.0	0.0	0.0	0.006	-0.019	
2.0	0.0	0.0	0.0	0.0	0.026	-0.019	
3.0	0.0	0.0	0.0	0.0	0.035	-0.032	
4.0	0.0	0.0	0.0	0.0	0.032	-0.035	
5.0	0.0	0.0	0.0	0.0	0.016	-0.032	
6.0	0.0	0.0	0.0	0.0	0.003	-0.019	
7.0	0.0	0.0	0.0	0.0	0.0	-0.022	
8.0	0.0	0.0	0.0	0.0	0.006	-0.026	
9.0	0.0	0.0	0.0	0.0	0.019	-0.038	
10.0	0.0	0.0	0.0	0.0	0.013	-0.061	
11.0	0.0	0.0	0.0	0.0	0.003	-0.051	
12.0	0.0	0.0	0.0	0.0	-0.016	-0.035	
13.0	0.0	0.0	0.0	0.0	-0.013	-0.032	
14.0	0.0	0.0	0.0	0.0	-0.029	-0.013	
15.0	0.0	0.0	0.0	0.0	-0.048	0.032	
0.0	0.0	0.0	0.0	0.0	-0.048	0.054	
1.0	0.0	0.0	0.0	0.0	-0.026	0.035	
2.0	0.0	0.0	0.0	0.0	-0.019	0.019	
3.0	0.0	0.0	0.0	0.0	-0.006	0.0	
4.0	0.0	0.0	0.0	0.0	0.016	-0.016	
5.0	0.0	0.0	0.0	0.0	0.032	-0.013	
6.0	0.0	0.0	0.0	0.0	0.029	-0.01	
7.0	0.0	0.0	0.0	0.0	0.038	-0.013	
8.0	0.0	0.0	0.0	0.0	0.035	-0.026	
9.0	0.0	0.0	0.0	0.0	0.026	-0.026	
10.0	0.0	0.0	0.0	0.0	0.01	-0.026	
11.0	0.0	0.0	0.0	0.0	0.0	-0.026	
12.0	0.0	0.0	0.0	0.0	-0.026	-0.032	
13.0	0.0	0.0	0.0	0.0	-0.016	-0.048	
14.0	0.0	0.0	0.0	0.0	-0.016	-0.064	
15.0	0.0	0.0	0.0	0.0	-0.013	-0.038	
0.0	0.0	0.0	0.0	0.0	-0.01	-0.038	
1.0	0.0	0.0	0.0	0.0	0.003	-0.026	
2.0	0.0	0.0	0.0	0.0	-0.01	-0.013	
3.0	0.0	0.0	0.0	0.0	-0.029	0.032	
4.0	0.0	0.0	0.0	0.0	-0.026	0.035	
5.0	0.0	0.0	0.0	0.0	-0.006	0.038	
6.0	0.0	0.0	0.0	0.0	0.01	0.019	
7.0	0.0	0.0	0.0	0.0	0.01	0.0	
8.0	0.0	0.0	0.0	0.0	0.013	-0.013	
9.0	0.0	0.0	0.0	0.0	0.026	-0.016	
10.0	0.0	0.0	0.0	0.0	0.032	-0.019	
11.0	0.0	0.0	0.0	0.0	0.026	-0.029	
12.0	0.0	0.0	0.0	0.0	0.013	-0.029	
13.0	0.0	0.0	0.0	0.0	0.051	-0.029	
14.0	0.0	0.0	0.0	0.0	0.08	-0.022	
15.0	0.0	0.0	0.0	0.0	0.048	-0.026	
0.0	0.0	0.0	0.0	0.0	0.006	-0.026	
1.0	0.0	0.0	0.0	0.0	-0.013	-0.038	
2.0	0.0	0.0	0.0	0.0	-0.035	-0.057	
3.0	0.0	0.0	0.0	0.0	-0.042	-0.048	
4.0	0.0	0.0	0.0	0.0	-0.048	-0.029	
5.0	0.0	0.0	0.0	0.0	-0.022	-0.035	
6.0	0.0	0.0	0.0	0.0	-0.019	-0.013	
7.0	0.0	0.0	0.0	0.0	-0.013	0.038	
8.0	0.0	0.0	0.0	0.0	-0.006	0.048	
9.0	0.0	0.0	0.0	0.0	-0.003	0.032	
10.0	0.0	0.0	0.0	0.0	-0.016	0.013	
11.0	0.0	0.0	0.0	0.0	-0.038	0.0	
12.0	0.0	0.0	0.0	0.0	-0.054	-0.01	
13.0	0.0	0.0	0.0	0.0	-0.073	-0.006	
14.0	0.0	0.0	0.0	0.0	-0.067	-0.022	
15.0	0.0	0.0	0.0	0.0	-0.045	-0.035	
0.0	0.0	0.0	0.0	0.0	0.0	-0.042	
1.0	0.0	0.0	0.0	0.0	0.003	-0.035	
2.0	0.0	0.0	0.0	0.0	0.0	-0.019	
3.0	0.0	0.0	0.0	0.0	0.0	-0.016	
4.0	0.0	0.0	0.0	0.0	0.013	-0.029	
5.0	0.0	0.0	0.0	0.0	0.045	-0.042	
6.0	0.0	0.0	0.0	0.0	0.054	-0.064	
7.0	0.0	0.0	0.0	0.0	0.042	-0.048	
8.0	0.0	0.0	0.0	0.0	0.016	-0.026	
9.0	0.0	0.0	0.0	0.0	0.019	-0.019	
10.0	0.0	0.0	0.0	0.0	-0.003	0.0	
11.0	0.0	0.0	0.0	0.0	-0.029	0.038	
12.0	0.0	0.0	0.0	0.0	-0.026	0.045	
13.0	0.0	0.0	0.0	0.0	-0.016	0.026	
14.0	0.0	0.0	0.0	0.0	-0.01	0.013	
15.0	0.0	0.0	0.0	0.0	0.006	-0.003	
0.0	0.0	0.0	0.0	0.0	0.016	-0.022	
1.0	0.0	0.0	0.0	0.0	0.026	-0.016	
2.0	0.0	0.0	0.0	0.0	0.029	-0.016	
3.0	0.0	0.0	0.0	0.0	0.026	-0.019	
4.0	0.0	0.0	0.0	0.0	0.026	-0.032	
5.0	0.0	0.0	0.0	0.0	0.019	-0.029	
6.0	0.0	0.0	0.0	0.0	0.016	-0.026	
7.0	0.0	0.0	0.0	0.0	0.013	-0.026	
8.0	0.0	0.0	0.0	0.0	0.054	-0.035	
9.0	0.0	0.0	0.0	0.0	0.131	-0.042	
10.0	0.0	0.0	0.0	0.0	0.089	-0.067	
11.0	0.0	0.0	0.0	0.0	0.038	-0.048	
12.0	0.0	0.0	0.0	0.0	0.048	-0.032	
13.0	0.0	0.0	0.0	0.0	0.038	-0.026	
14.0	0.0	0.0	0.0	0.0	-0.048	-0.01	
15.0	0.0	0.0	0.0	0.0	-0.15	0.032	
0.0	0.0	0.0	0.0	0.0	-0.172	0.042	
1.0	0.0	0.0	0.0	0.0	-0.166	0.029	
2.0	0.0	0.0	0.0	0.0	-0.16	0.019	
3.0	0.0	0.0	0.0	0.0	-0.125	0.0	
4.0	0.0	0.0	0.0	0.0	-0.08	-0.003	
5.0	0.0	0.0	0.0	0.0	-0.032	-0.01	
6.0	0.0	0.0	0.0	0.0	0.006	-0.019	
7.0	0.0	0.0	0.0	0.0	0.054	-0.026	
8.0	0.0	0.0	0.0	0.0	0.073	-0.029	
9.0	0.0	0.0	0.0	0.0	0.07	-0.026	
10.0	0.0	0.0	0.0	0.0	0.064	-0.022	
11.0	0.0	0.0	0.0	0.0	0.048	-0.026	
12.0	0.0	0.0	0.0	0.0	0.029	-0.032	
13.0	0.0	0.0	0.0	0.0	0.022	-0.045	
14.0	0.0	0.0	0.0	0.0	0.016	-0.057	
15.0	0.0	0.0	0.0	0.0	0.016	-0.045	
0.0	0.0	0.0	0.0	0.0	0.01	-0.029	
1.0	0.0	0.0	0.0	0.0	0.019	-0.022	
2.0	0.0	0.0	0.0	0.0	0.026	-0.003	
3.0	0.0	0.0	0.0	0.0	0.01	0.038	
4.0	0.0	0.0	0.0	0.0	-0.003	0.045	
5.0	0.0	0.0	0.0	0.0	-0.01	0.038	
6.0	0.0	0.0	0.0	0.0	-0.016	0.006	
7.0	0.0	0.0	0.0	0.0	-0.006	-0.003	
8.0	0.0	0.0	0.0	0.0	-0.019	-0.019	
9.0	0.0	0.0	0.0	0.0	-0.013	-0.016	
10.0	0.0	0.0	0.0	0.0	-0.006	-0.019	
11.0	0.0	0.0	0.0	0.0	0.01	-0.022	
12.0	0.0	0.0	0.0	0.0	0.029	-0.032	
13.0	0.0	0.0	0.0	0.0	0.048	-0.029	
14.0	0.0	0.0	0.0	0.0	0.051	-0.019	
15.0	0.0	0.0	0.0	0.0	0.029	-0.019	
0.0	0.0	0.0	0.0	0.0	0.013	-0.026	
1.0	0.0	0.0	0.0	0.0	-0.003	-0.042	
2.0	0.0	0.0	0.0	0.0	-0.01	-0.061	
3.0	0.0	0.0	0.0	0.0	-0.035	-0.045	
4.0	0.0	0.0	0.0	0.0	-0.051	-0.032	
5.0	0.0	0.0	0.0	0.0	-0.029	-0.026	
6.0	0.0	0.0	0.0	0.0	-0.026	-0.016	
7.0	0.0	0.0	0.0	0.0	-0.022	0.029	
8.0	0.0	0.0	0.0	0.0	-0.01	0.051	
9.0	0.0	0.0	0.0	0.0	-0.003	0.038	
10.0	0.0	0.0	0.0	0.0	-0.003	0.013	
11.0	0.0	0.0	0.0	0.0	-0.003	0.0	
12.0	0.0	0.0	0.0	0.0	0.006	-0.022	
13.0	0.0	0.0	0.0	0.0	0.01	-0.016	
14.0	0.0	0.0	0.0	0.0	0.006	-0.029	
15.0	0.0	0.0	0.0	0.0	0.003	-0.026	
0.0	0.0	0.0	0.0	0.0	0.01	-0.032	
1.0	0.0	0.0	0.0	0.0	0.016	-0.026	
2.0	0.0	0.0	0.0	0.0	0.006	-0.026	
3.0	0.0	0.0	0.0	0.0	-0.003	-0.032	
4.0	0.0	0.0	0.0	0.0	0.006	-0.032	
5.0	0.0	0.0	0.0	0.0	0.026	-0.042	
6.0	0.0	0.0	0.0	0.0	0.019	-0.07	
7.0	0.0	0.0	0.0	0.0	0.0	-0.042	
8.0	0.0	0.0	0.0	0.0	-0.026	-0.029	
9.0	0.0	0.0	0.0	0.0	-0.029	-0.029	
10.0	0.0	0.0	0.0	0.0	-0.029	-0.013	
11.0	0.0	0.0	0.0	0.0	-0.048	0.035	
12.0	0.0	0.0	0.0	0.0	-0.035	0.042	
13.0	0.0	0.0	0.0	0.0	-0.013	0.035	
14.0	0.0	0.0	0.0	0.0	0.0	0.026	
15.0	0.0	0.0	0.0	0.0	0.01	0.003	
0.0	0.0	0.0	0.0	0.0	0.019	-0.01	
1.0	0.0	0.0	0.0	0.0	0.029	-0.013	
2.0	0.0	0.0	0.0	0.0	0.032	-0.013	
3.0	0.0	0.0	0.0	0.0	0.019	-0.029	
4.0	0.0	0.0	0.0	0.0	0.0	-0.032	
5.0	0.0	0.0	0.0	0.0	0.0	-0.032	
6.0	0.0	0.0	0.0	0.0	0.0	-0.019	
7.0	0.0	0.0	0.0	0.0	-0.003	-0.022	
8.0	0.0	0.0	0.0	0.0	-0.006	-0.029	
9.0	0.0	0.0	0.0	0.0	0.003	-0.048	
10.0	0.0	0.0	0.0	0.0	0.0	-0.07	
11.0	0.0	0.0	0.0	0.0	-0.006	-0.051	
12.0	0.0	0.0	0.0	0.0	-0.026	-0.035	
13.0	0.0	0.0	0.0	0.0	0.0	-0.022	
14.0	0.0	0.0	0.0	0.0	0.077	-0.006	
15.0	0.0	0.0	0.0	0.0	0.035	0.029	
0.0	0.0	0.0	0.0	0.0	0.01	0.045	
1.0	0.0	0.0	0.0	0.0	-0.003	0.038	
2.0	0.0	0.0	0.0	0.0	0.019	0.022	
3.0	0.0	0.0	0.0	0.0	0.016	0.006	
4.0	0.0	0.0	0.0	0.0	-0.019	-0.01	
5.0	0.0	0.0	0.0	0.0	-0.026	-0.016	
6.0	0.0	0.0	0.0	0.0	-0.029	-0.016	
7.0	0.0	0.0	0.0	0.0	-0.026	-0.029	
8.0	0.0	0.0	0.0	0.0	-0.029	-0.032	
9.0	0.0	0.0	0.0	0.0	-0.035	-0.019	
10.0	0.0	0.0	0.0	0.0	-0.042	-0.016	
11.0	0.0	0.0	0.0	0.0	-0.042	-0.022	
12.0	0.0	0.0	0.0	0.0	-0.022	-0.026	
13.0	0.0	0.0	0.0	0.0	-0.006	-0.048	
14.0	0.0	0.0	0.0	0.0	-0.013	-0.061	
15.0	0.0	0.0	0.0	0.0	-0.01	-0.054	
0.0	0.0	0.0	0.0	0.0	-0.003	-0.048	
1.0	0.0	0.0	0.0	0.0	0.019	-0.032	
2.0	0.0	0.0	0.0	0.0	0.013	-0.013	
3.0	0.0	0.0	0.0	0.0	0.0	0.035	
4.0	0.0	0.0	0.0	0.0	0.035	0.038	
5.0	0.0	0.0	0.0	0.0	0.07	0.022	
6.0	0.0	0.0	0.0	0.0	0.07	0.006	
7.0	0.0	0.0	0.0	0.0	0.045	-0.003	
8.0	0.0	0.0	0.0	0.0	0.026	-0.016	
9.0	0.0	0.0	0.0	0.0	0.0	-0.016	
10.0	0.0	0.0	0.0	0.0	-0.026	-0.013	
11.0	0.0	0.0	0.0	0.0	-0.026	-0.016	
12.0	0.0	0.0	0.0	0.0	-0.026	-0.022	
13.0	0.0	0.0	0.0	0.0	-0.022	-0.006	
14.0	0.0	0.0	0.0	0.0	-0.003	-0.013	
15.0	0.0	0.0	0.0	0.0	0.003	-0.022	
0.0	0.0	0.0	0.0	0.0	0.006	-0.026	
1.0	0.0	0.0	0.0	0.0	0.006	-0.038	
2.0	0.0	0.0	0.0	0.0	0.01	-0.057	
3.0	0.0	0.0	0.0	0.0	0.0	-0.042	
4.0	0.0	0.0	0.0	0.0	-0.006	-0.029	
5.0	0.0	0.0	0.0	0.0	-0.003	-0.038	
6.0	0.0	0.0	0.0	0.0	-0.019	-0.019	
7.0	0.0	0.0	0.0	0.0	-0.032	0.038	
8.0	0.0	0.0	0.0	0.0	-0.042	0.038	
9.0	0.0	0.0	0.0	0.0	-0.016	0.029	
10.0	0.0	0.0	0.0	0.0	-0.019	0.01	
11.0	0.0	0.0	0.0	0.0	-0.003	0.0	
12.0	0.0	0.0	0.0	0.0	0.003	-0.01	
13.0	0.0	0.0	0.0	0.0	0.022	-0.013	
14.0	0.0	0.0	0.0	0.0	0.013	-0.022	
15.0	0.0	0.0	0.0	0.0	0.019	-0.029	
0.0	0.0	0.0	0.0	0.0	0.016	-0.029	
1.0	0.0	0.0	0.0	0.0	0.022	-0.032	
2.0	0.0	0.0	0.0	0.0	0.01	-0.029	
3.0	0.0	0.0	0.0	0.0	0.006	-0.032	
4.0	0.0	0.0	0.0	0.0	0.029	-0.032	
5.0	0.0	0.0	0.0	0.0	0.038	-0.051	
6.0	0.0	0.0	0.0	0.0	0.029	-0.061	
7.0	0.0	0.0	0.0	0.0	0.01	-0.042	
8.0	0.0	0.0	0.0	0.0	-0.01	-0.038	
9.0	0.0	0.0	0.0	0.0	-0.006	-0.029	
10.0	0.0	0.0	0.0	0.0	-0.032	-0.01	
11.0	0.0	0.0	0.0	0.0	-0.057	0.038	
12.0	0.0	0.0	0.0	0.0	-0.051	0.045	
13.0	0.0	0.0	0.0	0.0	-0.026	0.035	
14.0	0.0	0.0	0.0	0.0	-0.019	0.019	
15.0	0.0	0.0	0.0	0.0	0.003	0.006	
0.0	0.0	0.0	0.0	0.0	0.016	-0.006	
1.0	0.0	0.0	0.0	0.0	0.032	-0.006	
2.0	0.0	0.0	0.0	0.0	0.019	-0.016	
3.0	0.0	0.0	0.0	0.0	0.016	-0.026	
4.0	0.0	0.0	0.0	0.0	0.032	-0.042	
5.0	0.0	0.0	0.0	0.0	0.048	-0.038	
6.0	0.0	0.0	0.0	0.0	0.07	-0.016	
7.0	0.0	0.0	0.0	0.0	0.054	-0.032	
8.0	0.0	0.0	0.0	0.0	0.016	-0.026	
9.0	0.0	0.0	0.0	0.0	-0.016	-0.048	
10.0	0.0	0.0	0.0	0.0	-0.038	-0.061	
11.0	0.0	0.0	0.0	0.0	-0.057	-0.042	
12.0	0.0	0.0	0.0	0.0	-0.067	-0.035	
13.0	0.0	0.0	0.0	0.0	-0.048	-0.022	
14.0	0.0	0.0	0.0	0.0	-0.048	0.006	
15.0	0.0	0.0	0.0	0.0	-0.061	0.038	
0.0	0.0	0.0	0.0	0.0	-0.042	0.045	
1.0	0.0	0.0	0.0	0.0	-0.013	0.029	
2.0	0.0	0.0	0.0	0.0	0.01	0.006	
3.0	0.0	0.0	0.0	0.0	0.01	-0.006	
4.0	0.0	0.0	0.0	0.0	0.006	-0.013	
5.0	0.0	0.0	0.0	0.0	0.01	-0.019	
6.0	0.0	0.0	0.0	0.0	0.0	-0.026	
7.0	0.0	0.0	0.0	0.0	0.013	-0.032	
8.0	0.0	0.0	0.0	0.0	0.029	-0.035	
9.0	0.0	0.0	0.0	0.0	0.042	-0.022	
10.0	0.0	0.0	0.0	0.0	0.026	-0.016	
11.0	0.0	0.0	0.0	0.0	0.013	-0.026	
12.0	0.0	0.0	0.0	0.0	0.013	-0.029	
13.0	0.0	0.0	0.0	0.0	0.048	-0.042	
14.0	0.0	0.0	0.0	0.0	0.08	-0.054	
15.0	0.0	0.0	0.0	0.0	0.067	-0.045	
0.0	0.0	0.0	0.0	0.0	0.029	-0.029	
1.0	0.0	0.0	0.0	0.0	-0.022	-0.029	
2.0	0.0	0.0	0.0	0.0	-0.042	0.0	
3.0	0.0	0.0	0.0	0.0	-0.064	0.035	
4.0	0.0	0.0	0.0	0.0	-0.003	0.032	
5.0	0.0	0.0	0.0	0.0	0.016	0.022	
6.0	0.0	0.0	0.0	0.0	-0.013	0.022	
7.0	0.0	0.0	0.0	0.0	-0.035	0.0	
8.0	0.0	0.0	0.0	0.0	-0.051	-0.003	
9.0	0.0	0.0	0.0	0.0	-0.054	-0.013	
10.0	0.0	0.0	0.0	0.0	-0.051	-0.019	
11.0	0.0	0.0	0.0	0.0	-0.051	-0.029	
12.0	0.0	0.0	0.0	0.0	-0.042	-0.035	
13.0	0.0	0.0	0.0	0.0	-0.022	-0.032	
14.0	0.0	0.0	0.0	0.0	-0.013	-0.029	
15.0	0.0	0.0	0.0	0.0	-0.003	-0.022	
0.0	0.0	0.0	0.0	0.0	0.013	-0.029	
1.0	0.0	0.0	0.0	0.0	0.029	-0.045	
2.0	0.0	0.0	0.0	0.0	0.013	-0.057	
3.0	0.0	0.0	0.0	0.0	0.022	-0.051	
4.0	0.0	0.0	0.0	0.0	0.016	-0.035	
5.0	0.0	0.0	0.0	0.0	0.026	-0.026	
6.0	0.0	0.0	0.0	0.0	-0.003	-0.003	
7.0	0.0	0.0	0.0	0.0	-0.006	0.032	
8.0	0.0	0.0	0.0	0.0	-0.003	0.035	
9.0	0.0	0.0	0.0	0.0	0.003	0.029	
10.0	0.0	0.0	0.0	0.0	0.003	0.016	
11.0	0.0	0.0	0.0	0.0	0.003	0.003	
12.0	0.0	0.0	0.0	0.0	0.01	-0.013	
13.0	0.0	0.0	0.0	0.0	0.013	-0.01	
14.0	0.0	0.0	0.0	0.0	0.019	-0.019	
15.0	0.0	0.0	0.0	0.0	0.022	-0.019	
0.0	0.0	0.0	0.0	0.0	0.038	-0.022	
1.0	0.0	0.0	0.0	0.0	0.035	-0.022	
2.0	0.0	0.0	0.0	0.0	0.026	-0.013	
3.0	0.0	0.0	0.0	0.0	0.01	-0.022	
4.0	0.0	0.0	0.0	0.0	0.0	-0.032	
5.0	0.0	0.0	0.0	0.0	0.006	-0.051	
6.0	0.0	0.0	0.0	0.0	-0.003	-0.067	
7.0	0.0	0.0	0.0	0.0	-0.016	-0.051	
8.0	0.0	0.0	0.0	0.0	-0.022	-0.035	
9.0	0.0	0.0	0.0	0.0	-0.016	-0.032	
10.0	0.0	0.0	0.0	0.0	-0.029	-0.013	
11.0	0.0	0.0	0.0	0.0	-0.048	0.035	
12.0	0.0	0.0	0.0	0.0	-0.051	0.035	
13.0	0.0	0.0	0.0	0.0	-0.026	0.032	
14.0	0.0	0.0	0.0	0.0	-0.003	0.022	
15.0	0.0	0.0	0.0	0.0	0.01	-0.003	
0.0	0.0	0.0	0.0	0.0	0.022	-0.013	
1.0	0.0	0.0	0.0	0.0	0.038	-0.016	
2.0	0.0	0.0	0.0	0.0	0.038	-0.019	
3.0	0.0	0.0	0.0	0.0	0.093	-0.026	
4.0	0.0	0.0	0.0	0.0	0.08	-0.032	
5.0	0.0	0.0	0.0	0.0	0.035	-0.016	
6.0	0.0	0.0	0.0	0.0	0.026	-0.013	
7.0	0.0	0.0	0.0	0.0	0.022	-0.016	
8.0	0.0	0.0	0.0	0.0	-0.019	-0.022	
9.0	0.0	0.0	0.0	0.0	-0.048	-0.042	
10.0	0.0	0.0	0.0	0.0	-0.057	-0.057	
11.0	0.0	0.0	0.0	0.0	-0.048	-0.042	
12.0	0.0	0.0	0.0	0.0	-0.042	-0.032	
13.0	0.0	0.0	0.0	0.0	-0.019	-0.026	
14.0	0.0	0.0	0.0	0.0	-0.016	-0.01	
15.0	0.0	0.0	0.0	0.0	-0.045	0.045	
0.0	0.0	0.0	0.0	0.0	-0.051	0.048	
1.0	0.0	0.0	0.0	0.0	-0.042	0.029	
2.0	0.0	0.0	0.0	0.0	-0.019	0.01	
3.0	0.0	0.0	0.0	0.0	-0.006	-0.003	
4.0	0.0	0.0	0.0	0.0	0.003	-0.019	
5.0	0.0	0.0	0.0	0.0	0.013	-0.022	
6.0	0.0	0.0	0.0	0.0	0.0	-0.022	
7.0	0.0	0.0	0.0	0.0	0.003	-0.029	
8.0	0.0	0.0	0.0	0.0	0.016	-0.038	
9.0	0.0	0.0	0.0	0.0	0.006	-0.029	
10.0	0.0	0.0	0.0	0.0	0.006	-0.026	
11.0	0.0	0.0	0.0	0.0	-0.003	-0.029	
12.0	0.0	0.0	0.0	0.0	-0.003	-0.035	
13.0	0.0	0.0	0.0	0.0	0.026	-0.054	
14.0	0.0	0.0	0.0	0.0	0.019	-0.067	
15.0	0.0	0.0	0.0	0.0	0.038	-0.051	
0.0	0.0	0.0	0.0	0.0	0.038	-0.038	
1.0	0.0	0.0	0.0	0.0	0.035	-0.029	
2.0	0.0	0.0	0.0	0.0	0.01	-0.003	
3.0	0.0	0.0	0.0	0.0	0.0	0.042	
4.0	0.0	0.0	0.0	0.0	-0.013	0.057	
5.0	0.0	0.0	0.0	0.0	-0.032	0.035	
6.0	0.0	0.0	0.0	0.0	-0.035	0.019	
7.0	0.0	0.0	0.0	0.0	-0.029	0.0	
8.0	0.0	0.0	0.0	0.0	-0.016	-0.006	
9.0	0.0	0.0	0.0	0.0	-0.006	-0.01	
10.0	0.0	0.0	0.0	0.0	0.003	-0.013	
11.0	0.0	0.0	0.0	0.0	0.035	-0.032	
12.0	0.0	0.0	0.0	0.0	0.038	-0.035	
13.0	0.0	0.0	0.0	0.0	0.035	-0.029	
14.0	0.0	0.0	0.0	0.0	0.038	-0.026	
15.0	0.0	0.0	0.0	0.0	0.016	-0.029	
0.0	0.0	0.0	0.0	0.0	0.0	-0.029	
1.0	0.0	0.0	0.0	0.0	0.0	-0.045	
2.0	0.0	0.0	0.0	0.0	-0.006	-0.061	
3.0	0.0	0.0	0.0	0.0	-0.026	-0.051	
4.0	0.0	0.0	0.0	0.0	-0.032	-0.038	
5.0	0.0	0.0	0.0	0.0	-0.019	-0.029	
6.0	0.0	0.0	0.0	0.0	-0.035	0.0	
7.0	0.0	0.0	0.0	0.0	-0.045	0.038	
8.0	0.0	0.0	0.0	0.0	-0.045	0.045	
9.0	0.0	0.0	0.0	0.0	-0.029	0.035	
10.0	0.0	0.0	0.0	0.0	-0.013	0.01	
11.0	0.0	0.0	0.0	0.0	-0.003	-0.01	
12.0	0.0	0.0	0.0	0.0	0.019	-0.016	
13.0	0.0	0.0	0.0	0.0	0.035	-0.01	
14.0	0.0	0.0	0.0	0.0	0.038	-0.013	
15.0	0.0	0.0	0.0	0.0	0.029	-0.022	
0.0	0.0	0.0	0.0	0.0	0.019	-0.029	
1.0	0.0	0.0	0.0	0.0	0.01	-0.019	
2.0	0.0	0.0	0.0	0.0	0.006	-0.019	
3.0	0.0	0.0	0.0	0.0	-0.01	-0.022	
4.0	0.0	0.0	0.0	0.0	0.0	-0.029	
5.0	0.0	0.0	0.0	0.0	0.013	-0.045	
6.0	0.0	0.0	0.0	0.0	0.01	-0.057	
7.0	0.0	0.0	0.0	0.0	-0.006	-0.048	
8.0	0.0	0.0	0.0	0.0	-0.016	-0.032	
9.0	0.0	0.0	0.0	0.0	-0.003	-0.019	
10.0	0.0	0.0	0.0	0.0	-0.013	-0.006	
11.0	0.0	0.0	0.0	0.0	-0.035	0.042	
12.0	0.0	0.0	0.0	0.0	-0.019	0.038	
13.0	0.0	0.0	0.0	0.0	0.003	0.026	
14.0	0.0	0.0	0.0	0.0	0.01	0.013	
15.0	0.0	0.0	0.0	0.0	0.01	0.006	
0.0	0.0	0.0	0.0	0.0	0.01	-0.006	
1.0	0.0	0.0	0.0	0.0	0.029	-0.013	
2.0	0.0	0.0	0.0	0.0	0.019	-0.019	
3.0	0.0	0.0	0.0	0.0	0.01	-0.022	
4.0	0.0	0.0	0.0	0.0	0.013	-0.032	
5.0	0.0	0.0	0.0	0.0	0.013	-0.035	
6.0	0.0	0.0	0.0	0.0	0.006	-0.022	
7.0	0.0	0.0	0.0	0.0	-0.01	-0.029	
8.0	0.0	0.0	0.0	0.0	-0.016	-0.035	
9.0	0.0	0.0	0.0	0.0	-0.013	-0.048	
10.0	0.0	0.0	0.0	0.0	-0.038	-0.061	
11.0	0.0	0.0	0.0	0.0	-0.026	-0.048	
12.0	0.0	0.0	0.0	0.0	-0.029	-0.029	
13.0	0.0	0.0	0.0	0.0	-0.013	-0.026	
14.0	0.0	0.0	0.0	0.0	-0.022	-0.003	
15.0	0.0	0.0	0.0	0.0	-0.032	0.029	
0.0	0.0	0.0	0.0	0.0	-0.003	0.042	
1.0	0.0	0.0	0.0	0.0	0.006	0.035	
2.0	0.0	0.0	0.0	0.0	0.042	0.019	
3.0	0.0	0.0	0.0	0.0	0.099	0.003	
4.0	0.0	0.0	0.0	0.0	0.144	-0.016	
5.0	0.0	0.0	0.0	0.0	0.105	-0.013	
6.0	0.0	0.0	0.0	0.0	0.035	-0.019	
7.0	0.0	0.0	0.0	0.0	-0.029	-0.029	
8.0	0.0	0.0	0.0	0.0	-0.083	-0.038	
9.0	0.0	0.0	0.0	0.0	-0.125	-0.035	
10.0	0.0	0.0	0.0	0.0	-0.128	-0.029	
11.0	0.0	0.0	0.0	0.0	-0.112	-0.026	
12.0	0.0	0.0	0.0	0.0	-0.067	-0.032	
13.0	0.0	0.0	0.0	0.0	-0.022	-0.042	
14.0	0.0	0.0	0.0	0.0	-0.003	-0.051	
15.0	0.0	0.0	0.0	0.0	0.003	-0.048	
0.0	0.0	0.0	0.0	0.0	0.013	-0.029	
1.0	0.0	0.0	0.0	0.0	0.01	-0.035	
2.0	0.0	0.0	0.0	0.0	0.0	0.0	
3.0	0.0	0.0	0.0	0.0	-0.01	0.038	
4.0	0.0	0.0	0.0	0.0	0.016	0.042	
5.0	0.0	0.0	0.0	0.0	0.048	0.022	
6.0	0.0	0.0	0.0	0.0	0.048	0.01	
7.0	0.0	0.0	0.0	0.0	0.048	-0.006	
8.0	0.0	0.0	0.0	0.0	0.026	-0.013	
9.0	0.0	0.0	0.0	0.0	0.019	-0.016	
10.0	0.0	0.0	0.0	0.0	0.003	-0.01	
11.0	0.0	0.0	0.0	0.0	-0.003	-0.026	
12.0	0.0	0.0	0.0	0.0	0.003	-0.029	
13.0	0.0	0.0	0.0	0.0	-0.003	-0.029	
14.0	0.0	0.0	0.0	0.0	0.0	-0.026	
15.0	0.0	0.0	0.0	0.0	-0.016	-0.029	
0.0	0.0	0.0	0.0	0.0	-0.019	-0.026	
1.0	0.0	0.0	0.0	0.0	-0.006	-0.045	
2.0	0.0	0.0	0.0	0.0	0.0	-0.054	
3.0	0.0	0.0	0.0	0.0	0.048	-0.042	
4.0	0.0	0.0	0.0	0.0	0.061	-0.032	
5.0	0.0	0.0	0.0	0.0	0.064	-0.045	
6.0	0.0	0.0	0.0	0.0	0.029	-0.013	
7.0	0.0	0.0	0.0	0.0	-0.029	0.032	
8.0	0.0	0.0	0.0	0.0	-0.045	0.032	
9.0	0.0	0.0	0.0	0.0	-0.064	0.035	
10.0	0.0	0.0	0.0	0.0	-0.07	0.019	
11.0	0.0	0.0	0.0	0.0	-0.051	0.003	
12.0	0.0	0.0	0.0	0.0	-0.042	-0.013	
13.0	0.0	0.0	0.0	0.0	-0.019	-0.016	
14.0	0.0	0.0	0.0	0.0	-0.01	-0.019	
15.0	0.0	0.0	0.0	0.0	0.0	-0.022	
0.0	0.0	0.0	0.0	0.0	0.003	-0.035	
1.0	0.0	0.0	0.0	0.0	0.01	-0.026	
2.0	0.0	0.0	0.0	0.0	0.013	-0.013	
3.0	0.0	0.0	0.0	0.0	0.003	-0.022	
4.0	0.0	0.0	0.0	0.0	0.016	-0.026	
5.0	0.0	0.0	0.0	0.0	0.016	-0.051	
6.0	0.0	0.0	0.0	0.0	0.006	-0.061	
7.0	0.0	0.0	0.0	0.0	0.016	-0.051	
8.0	0.0	0.0	0.0	0.0	0.013	-0.038	
9.0	0.0	0.0	0.0	0.0	0.022	-0.029	
10.0	0.0	0.0	0.0	0.0	0.022	-0.003	
11.0	0.0	0.0	0.0	0.0	0.0	0.042	
12.0	0.0	0.0	0.0	0.0	0.006	0.042	
13.0	0.0	0.0	0.0	0.0	0.006	0.032	
14.0	0.0	0.0	0.0	0.0	0.013	0.019	
15.0	0.0	0.0	0.0	0.0	0.003	0.003	
0.0	0.0	0.0	0.0	0.0	-0.006	-0.003	
1.0	0.0	0.0	0.0	0.0	-0.003	0.003	
2.0	0.0	0.0	0.0	0.0	0.0	-0.013	
3.0	0.0	0.0	0.0	0.0	0.0	-0.026	
4.0	0.0	0.0	0.0	0.0	-0.006	-0.026	
5.0	0.0	0.0	0.0	0.0	-0.016	-0.029	
6.0	0.0	0.0	0.0	0.0	-0.026	-0.019	
7.0	0.0	0.0	0.0	0.0	-0.032	-0.022	
8.0	0.0	0.0	0.0	0.0	-0.026	-0.029	
9.0	0.0	0.0	0.0	0.0	0.0	-0.048	
10.0	0.0	0.0	0.0	0.0	0.0	-0.07	
11.0	0.0	0.0	0.0	0.0	0.038	-0.057	
12.0	0.0	0.0	0.0	0.0	0.057	-0.032	
13.0	0.0	0.0	0.0	0.0	0.038	-0.026	
14.0	0.0	0.0	0.0	0.0	0.0	-0.006	
15.0	0.0	0.0	0.0	0.0	-0.042	0.042	
0.0	0.0	0.0	0.0	0.0	-0.048	0.042	
1.0	0.0	0.0	0.0	0.0	-0.057	0.019	
2.0	0.0	0.0	0.0	0.0	-0.051	0.013	
3.0	0.0	0.0	0.0	0.0	-0.029	-0.006	
4.0	0.0	0.0	0.0	0.0	-0.01	-0.013	
5.0	0.0	0.0	0.0	0.0	0.013	-0.013	
6.0	0.0	0.0	0.0	0.0	0.019	-0.016	
7.0	0.0	0.0	0.0	0.0	0.022	-0.026	
8.0	0.0	0.0	0.0	0.0	0.022	-0.032	
9.0	0.0	0.0	0.0	0.0	0.029	-0.019	
10.0	0.0	0.0	0.0	0.0	0.029	-0.016	
11.0	0.0	0.0	0.0	0.0	0.029	-0.032	
12.0	0.0	0.0	0.0	0.0	0.035	-0.035	
13.0	0.0	0.0	0.0	0.0	0.048	-0.051	
14.0	0.0	0.0	0.0	0.0	0.061	-0.064	
15.0	0.0	0.0	0.0	0.0	0.045	-0.051	
0.0	0.0	0.0	0.0	0.0	0.016	-0.022	
1.0	0.0	0.0	0.0	0.0	-0.003	-0.026	
2.0	0.0	0.0	0.0	0.0	-0.032	0.0	
3.0	0.0	0.0	0.0	0.0	-0.073	0.042	
4.0	0.0	0.0	0.0	0.0	-0.073	0.048	
5.0	0.0	0.0	0.0	0.0	-0.057	0.035	
6.0	0.0	0.0	0.0	0.0	-0.032	0.006	
7.0	0.0	0.0	0.0	0.0	-0.003	-0.01	
8.0	0.0	0.0	0.0	0.0	0.029	-0.019	
9.0	0.0	0.0	0.0	0.0	0.042	-0.016	
10.0	0.0	0.0	0.0	0.0	0.019	-0.016	
11.0	0.0	0.0	0.0	0.0	0.003	-0.029	
12.0	0.0	0.0	0.0	0.0	0.003	-0.026	
13.0	0.0	0.0	0.0	0.0	-0.022	-0.019	
14.0	0.0	0.0	0.0	0.0	-0.032	-0.016	
15.0	0.0	0.0	0.0	0.0	-0.042	-0.026	
0.0	0.0	0.0	0.0	0.0	-0.016	-0.026	
1.0	0.0	0.0	0.0	0.0	0.042	-0.051	
2.0	0.0	0.0	0.0	0.0	0.032	-0.064	
3.0	0.0	0.0	0.0	0.0	0.029	-0.051	
4.0	0.0	0.0	0.0	0.0	-0.003	-0.029	
5.0	0.0	0.0	0.0	0.0	-0.006	-0.026	
6.0	0.0	0.0	0.0	0.0	-0.029	-0.01	
7.0	0.0	0.0	0.0	0.0	-0.067	0.045	
8.0	0.0	0.0	0.0	0.0	-0.057	0.051	
9.0	0.0	0.0	0.0	0.0	-0.026	0.032	
10.0	0.0	0.0	0.0	0.0	-0.006	0.01	
11.0	0.0	0.0	0.0	0.0	0.019	-0.01	
12.0	0.0	0.0	0.0	0.0	0.022	-0.022	
13.0	0.0	0.0	0.0	0.0	0.019	-0.01	
14.0	0.0	0.0	0.0	0.0	0.0	-0.006	
15.0	0.0	0.0	0.0	0.0	0.003	-0.026	
0.0	0.0	0.0	0.0	0.0	0.003	-0.026	
1.0	0.0	0.0	0.0	0.0	0.006	-0.016	
2.0	0.0	0.0	0.0	0.0	-0.003	-0.026	
3.0	0.0	0.0	0.0	0.0	-0.003	-0.032	
4.0	0.0	0.0	0.0	0.0	0.003	-0.038	
5.0	0.0	0.0	0.0	0.0	0.016	-0.048	
6.0	0.0	0.0	0.0	0.0	0.01	-0.057	
7.0	0.0	0.0	0.0	0.0	0.0	-0.054	
8.0	0.0	0.0	0.0	0.0	0.01	-0.042	
9.0	0.0	0.0	0.0	0.0	0.006	-0.035	
10.0	0.0	0.0	0.0	0.0	-0.006	-0.01	
11.0	0.0	0.0	0.0	0.0	-0.022	0.038	
12.0	0.0	0.0	0.0	0.0	-0.013	0.045	
13.0	0.0	0.0	0.0	0.0	0.0	0.029	
14.0	0.0	0.0	0.0	0.0	0.003	0.01	
15.0	0.0	0.0	0.0	0.0	0.013	0.0	
0.0	0.0	0.0	0.0	0.0	0.01	-0.01	
1.0	0.0	0.0	0.0	0.0	0.019	-0.013	
2.0	0.0	0.0	0.0	0.0	0.032	-0.013	
3.0	0.0	0.0	0.0	0.0	0.026	-0.019	
4.0	0.0	0.0	0.0	0.0	0.013	-0.026	
5.0	0.0	0.0	0.0	0.0	0.013	-0.019	
6.0	0.0	0.0	0.0	0.0	0.0	-0.019	
7.0	0.0	0.0	0.0	0.0	-0.01	-0.016	
8.0	0.0	0.0	0.0	0.0	0.006	-0.032	
9.0	0.0	0.0	0.0	0.0	0.057	-0.048	
10.0	0.0	0.0	0.0	0.0	0.035	-0.061	
11.0	0.0	0.0	0.0	0.0	0.016	-0.045	
12.0	0.0	0.0	0.0	0.0	-0.029	-0.038	
13.0	0.0	0.0	0.0	0.0	-0.029	-0.026	
14.0	0.0	0.0	0.0	0.0	-0.019	-0.006	
15.0	0.0	0.0	0.0	0.0	-0.019	0.035	
0.0	0.0	0.0	0.0	0.0	-0.029	0.045	
1.0	0.0	0.0	0.0	0.0	-0.026	0.029	
2.0	0.0	0.0	0.0	0.0	-0.022	0.013	
3.0	0.0	0.0	0.0	0.0	-0.013	-0.01	
4.0	0.0	0.0	0.0	0.0	-0.013	-0.01	
5.0	0.0	0.0	0.0	0.0	-0.022	-0.013	
6.0	0.0	0.0	0.0	0.0	-0.042	-0.016	
7.0	0.0	0.0	0.0	0.0	-0.032	-0.026	
8.0	0.0	0.0	0.0	0.0	-0.01	-0.032	
9.0	0.0	0.0	0.0	0.0	0.01	-0.026	
10.0	0.0	0.0	0.0	0.0	0.019	-0.019	
11.0	0.0	0.0	0.0	0.0	0.029	-0.029	
12.0	0.0	0.0	0.0	0.0	0.035	-0.038	
13.0	0.0	0.0	0.0	0.0	0.035	-0.048	
14.0	0.0	0.0	0.0	0.0	0.016	-0.054	
15.0	0.0	0.0	0.0	0.0	0.0	-0.042	
0.0	0.0	0.0	0.0	0.0	-0.01	-0.029	
1.0	0.0	0.0	0.0	0.0	0.0	-0.013	
2.0	0.0	0.0	0.0	0.0	-0.013	0.003	
3.0	0.0	0.0	0.0	0.0	-0.029	0.038	
4.0	0.0	0.0	0.0	0.0	-0.029	0.038	
5.0	0.0	0.0	0.0	0.0	-0.026	0.022	
6.0	0.0	0.0	0.0	0.0	-0.035	0.01	
7.0	0.0	0.0	0.0	0.0	-0.019	-0.006	
8.0	0.0	0.0	0.0	0.0	-0.003	-0.016	
9.0	0.0	0.0	0.0	0.0	0.016	-0.016	
10.0	0.0	0.0	0.0	0.0	0.045	-0.019	
11.0	0.0	0.0	0.0	0.0	0.073	-0.026	
12.0	0.0	0.0	0.0	0.0	0.054	-0.032	
13.0	0.0	0.0	0.0	0.0	0.013	-0.022	
14.0	0.0	0.0	0.0	0.0	-0.019	-0.016	
15.0	0.0	0.0	0.0	0.0	-0.048	-0.019	
0.0	0.0	0.0	0.0	0.0	-0.051	-0.026	
1.0	0.0	0.0	0.0	0.0	-0.042	-0.042	
2.0	0.0	0.0	0.0	0.0	-0.038	-0.057	
3.0	0.0	0.0	0.0	0.0	-0.019	-0.054	
4.0	0.0	0.0	0.0	0.0	-0.019	-0.038	
5.0	0.0	0.0	0.0	0.0	0.0	-0.035	
6.0	0.0	0.0	0.0	0.0	-0.013	-0.006	
7.0	0.0	0.0	0.0	0.0	-0.029	0.035	
8.0	0.0	0.0	0.0	0.0	-0.003	0.038	
9.0	0.0	0.0	0.0	0.0	0.026	0.029	
10.0	0.0	0.0	0.0	0.0	0.022	0.006	
11.0	0.0	0.0	0.0	0.0	0.019	-0.003	
12.0	0.0	0.0	0.0	0.0	0.029	-0.016	
13.0	0.0	0.0	0.0	0.0	0.035	-0.016	
14.0	0.0	0.0	0.0	0.0	0.029	-0.016	
15.0	0.0	0.0	0.0	0.0	0.022	-0.022	
0.0	0.0	0.0	0.0	0.0	0.013	-0.026	
1.0	0.0	0.0	0.0	0.0	0.016	-0.022	
2.0	0.0	0.0	0.0	0.0	0.003	-0.022	
3.0	0.0	0.0	0.0	0.0	0.0	-0.026	
4.0	0.0	0.0	0.0	0.0	0.029	-0.038	
5.0	0.0	0.0	0.0	0.0	0.042	-0.048	
6.0	0.0	0.0	0.0	0.0	0.019	-0.064	
7.0	0.0	0.0	0.0	0.0	-0.006	-0.045	
8.0	0.0	0.0	0.0	0.0	-0.032	-0.019	
9.0	0.0	0.0	0.0	0.0	-0.038	-0.026	
10.0	0.0	0.0	0.0	0.0	-0.048	-0.01	
11.0	0.0	0.0	0.0	0.0	-0.029	0.042	
12.0	0.0	0.0	0.0	0.0	-0.019	0.042	
13.0	0.0	0.0	0.0	0.0	0.0	0.026	
14.0	0.0	0.0	0.0	0.0	-0.003	0.016	
15.0	0.0	0.0	0.0	0.0	0.003	0.003	
0.0	0.0	0.0	0.0	0.0	0.003	-0.016	
1.0	0.0	0.0	0.0	0.0	0.013	-0.013	
2.0	0.0	0.0	0.0	0.0	0.032	-0.016	
3.0	0.0	0.0	0.0	0.0	0.07	-0.035	
4.0	0.0	0.0	0.0	0.0	0.054	-0.035	
5.0	0.0	0.0	0.0	0.0	0.022	-0.026	
6.0	0.0	0.0	0.0	0.0	-0.013	-0.022	
7.0	0.0	0.0	0.0	0.0	-0.045	-0.029	
8.0	0.0	0.0	0.0	0.0	-0.057	-0.026	
9.0	0.0	0.0	0.0	0.0	-0.042	-0.042	
10.0	0.0	0.0	0.0	0.0	-0.045	-0.051	
11.0	0.0	0.0	0.0	0.0	-0.042	-0.038	
12.0	0.0	0.0	0.0	0.0	-0.045	-0.026	
13.0	0.0	0.0	0.0	0.0	-0.013	-0.026	
14.0	0.0	0.0	0.0	0.0	-0.022	-0.006	
15.0	0.0	0.0	0.0	0.0	-0.038	0.029	
0.0	0.0	0.0	0.0	0.0	-0.035	0.029	
1.0	0.0	0.0	0.0	0.0	-0.016	0.022	
2.0	0.0	0.0	0.0	0.0	0.003	0.01	
3.0	0.0	0.0	0.0	0.0	0.022	-0.01	
4.0	0.0	0.0	0.0	0.0	0.035	-0.013	
5.0	0.0	0.0	0.0	0.0	0.032	-0.022	
6.0	0.0	0.0	0.0	0.0	0.032	-0.022	
7.0	0.0	0.0	0.0	0.0	0.029	-0.019	
8.0	0.0	0.0	0.0	0.0	0.038	-0.019	
9.0	0.0	0.0	0.0	0.0	0.032	-0.013	
10.0	0.0	0.0	0.0	0.0	0.019	-0.003	
11.0	0.0	0.0	0.0	0.0	0.003	-0.022	
12.0	0.0	0.0	0.0	0.0	0.01	-0.042	
13.0	0.0	0.0	0.0	0.0	0.016	-0.07	
14.0	0.0	0.0	0.0	0.0	0.003	-0.07	
15.0	0.0	0.0	0.0	0.0	0.0	-0.048	
0.0	0.0	0.0	0.0	0.0	-0.013	-0.035	
1.0	0.0	0.0	0.0	0.0	-0.006	-0.029	
2.0	0.0	0.0	0.0	0.0	-0.022	-0.003	
3.0	0.0	0.0	0.0	0.0	-0.035	0.045	
4.0	0.0	0.0	0.0	0.0	-0.026	0.048	
5.0	0.0	0.0	0.0	0.0	-0.003	0.038	
6.0	0.0	0.0	0.0	0.0	0.006	0.016	
7.0	0.0	0.0	0.0	0.0	0.019	0.0	
8.0	0.0	0.0	0.0	0.0	0.019	-0.01	
9.0	0.0	0.0	0.0	0.0	0.029	-0.013	
10.0	0.0	0.0	0.0	0.0	0.026	-0.022	
11.0	0.0	0.0	0.0	0.0	0.029	-0.026	
12.0	0.0	0.0	0.0	0.0	0.038	-0.026	
13.0	0.0	0.0	0.0	0.0	0.022	-0.022	
14.0	0.0	0.0	0.0	0.0	0.01	-0.016	
15.0	0.0	0.0	0.0	0.0	-0.013	-0.026	
0.0	0.0	0.0	0.0	0.0	-0.022	-0.026	
1.0	0.0	0.0	0.0	0.0	-0.026	-0.042	
2.0	0.0	0.0	0.0	0.0	-0.035	-0.054	
3.0	0.0	0.0	0.0	0.0	-0.032	-0.051	
4.0	0.0	0.0	0.0	0.0	-0.038	-0.035	
5.0	0.0	0.0	0.0	0.0	-0.026	-0.035	
6.0	0.0	0.0	0.0	0.0	-0.038	0.0	
7.0	0.0	0.0	0.0	0.0	-0.01	0.038	
8.0	0.0	0.0	0.0	0.0	0.08	0.045	
9.0	0.0	0.0	0.0	0.0	0.089	0.022	
10.0	0.0	0.0	0.0	0.0	0.035	0.01	
11.0	0.0	0.0	0.0	0.0	-0.006	-0.01	
12.0	0.0	0.0	0.0	0.0	-0.045	-0.022	
13.0	0.0	0.0	0.0	0.0	-0.077	-0.016	
14.0	0.0	0.0	0.0	0.0	-0.08	-0.026	
15.0	0.0	0.0	0.0	0.0	-0.077	-0.032	
0.0	0.0	0.0	0.0	0.0	-0.061	-0.029	
1.0	0.0	0.0	0.0	0.0	-0.026	-0.022	
2.0	0.0	0.0	0.0	0.0	-0.003	-0.016	
3.0	0.0	0.0	0.0	0.0	0.01	-0.022	
4.0	0.0	0.0	0.0	0.0	0.029	-0.029	
5.0	0.0	0.0	0.0	0.0	0.038	-0.051	
6.0	0.0	0.0	0.0	0.0	0.032	-0.064	
7.0	0.0	0.0	0.0	0.0	0.026	-0.048	
8.0	0.0	0.0	0.0	0.0	0.016	-0.026	
9.0	0.0	0.0	0.0	0.0	0.013	-0.026	
10.0	0.0	0.0	0.0	0.0	-0.006	0.003	
11.0	0.0	0.0	0.0	0.0	-0.026	0.035	
12.0	0.0	0.0	0.0	0.0	-0.019	0.035	
13.0	0.0	0.0	0.0	0.0	0.003	0.029	
14.0	0.0	0.0	0.0	0.0	0.01	0.019	
15.0	0.0	0.0	0.0	0.0	0.022	0.0	
0.0	0.0	0.0	0.0	0.0	0.029	-0.019	
1.0	0.0	0.0	0.0	0.0	0.026	-0.016	
2.0	0.0	0.0	0.0	0.0	0.019	-0.022	
3.0	0.0	0.0	0.0	0.0	0.022	-0.022	
4.0	0.0	0.0	0.0	0.0	0.026	-0.032	
5.0	0.0	0.0	0.0	0.0	0.013	-0.022	
6.0	0.0	0.0	0.0	0.0	0.0	-0.016	
7.0	0.0	0.0	0.0	0.0	-0.013	-0.026	
8.0	0.0	0.0	0.0	0.0	-0.006	-0.035	
9.0	0.0	0.0	0.0	0.0	0.003	-0.048	
10.0	0.0	0.0	0.0	0.0	0.026	-0.054	
11.0	0.0	0.0	0.0	0.0	0.038	-0.042	
12.0	0.0	0.0	0.0	0.0	0.003	-0.026	
13.0	0.0	0.0	0.0	0.0	-0.022	-0.019	
14.0	0.0	0.0	0.0	0.0	-0.054	-0.003	
15.0	0.0	0.0	0.0	0.0	-0.07	0.045	
0.0	0.0	0.0	0.0	0.0	-0.061	0.038	
1.0	0.0	0.0	0.0	0.0	-0.051	0.026	
2.0	0.0	0.0	0.0	0.0	-0.026	0.006	
3.0	0.0	0.0	0.0	0.0	-0.013	-0.003	
4.0	0.0	0.0	0.0	0.0	0.01	-0.01	
5.0	0.0	0.0	0.0	0.0	0.026	-0.013	
6.0	0.0	0.0	0.0	0.0	0.035	-0.013	
7.0	0.0	0.0	0.0	0.0	0.029	-0.026	
8.0	0.0	0.0	0.0	0.0	0.029	-0.035	
9.0	0.0	0.0	0.0	0.0	0.029	-0.026	
10.0	0.0	0.0	0.0	0.0	0.013	-0.029	
11.0	0.0	0.0	0.0	0.0	0.01	-0.032	
12.0	0.0	0.0	0.0	0.0	-0.006	-0.048	
13.0	0.0	0.0	0.0	0.0	0.013	-0.057	
14.0	0.0	0.0	0.0	0.0	0.016	-0.057	
15.0	0.0	0.0	0.0	0.0	0.035	-0.042	
0.0	0.0	0.0	0.0	0.0	0.016	-0.029	
1.0	0.0	0.0	0.0	0.0	0.019	-0.032	
2.0	0.0	0.0	0.0	0.0	-0.003	-0.003	
3.0	0.0	0.0	0.0	0.0	-0.026	0.045	
4.0	0.0	0.0	0.0	0.0	-0.032	0.045	
5.0	0.0	0.0	0.0	0.0	-0.026	0.035	
6.0	0.0	0.0	0.0	0.0	-0.026	0.019	
7.0	0.0	0.0	0.0	0.0	-0.019	0.003	
8.0	0.0	0.0	0.0	0.0	-0.013	-0.01	
9.0	0.0	0.0	0.0	0.0	0.006	-0.006	
10.0	0.0	0.0	0.0	0.0	0.003	-0.019	
11.0	0.0	0.0	0.0	0.0	-0.013	-0.029	
12.0	0.0	0.0	0.0	0.0	0.003	-0.016	
13.0	0.0	0.0	0.0	0.0	0.003	-0.022	
14.0	0.0	0.0	0.0	0.0	0.013	-0.019	
15.0	0.0	0.0	0.0	0.0	0.006	-0.035	
0.0	0.0	0.0	0.0	0.0	0.016	-0.042	
1.0	0.0	0.0	0.0	0.0	0.022	-0.064	
2.0	0.0	0.0	0.0	0.0	0.0	-0.073	
3.0	0.0	0.0	0.0	0.0	-0.013	-0.042	
4.0	0.0	0.0	0.0	0.0	0.0	-0.029	
5.0	0.0	0.0	0.0	0.0	0.038	-0.029	
6.0	0.0	0.0	0.0	0.0	0.0	0.0	
7.0	0.0	0.0	0.0	0.0	-0.035	0.038	
8.0	0.0	0.0	0.0	0.0	-0.042	0.045	
9.0	0.0	0.0	0.0	0.0	-0.038	0.029	
10.0	0.0	0.0	0.0	0.0	-0.035	0.019	
11.0	0.0	0.0	0.0	0.0	-0.026	0.003	
12.0	0.0	0.0	0.0	0.0	-0.026	-0.01	
13.0	0.0	0.0	0.0	0.0	0.0	-0.016	
14.0	0.0	0.0	0.0	0.0	0.016	-0.022	
15.0	0.0	0.0	0.0	0.0	0.022	-0.032	
0.0	0.0	0.0	0.0	0.0	0.019	-0.032	
1.0	0.0	0.0	0.0	0.0	0.003	-0.026	
2.0	0.0	0.0	0.0	0.0	0.0	-0.022	
3.0	0.0	0.0	0.0	0.0	-0.003	-0.032	
4.0	0.0	0.0	0.0	0.0	0.0	-0.032	
5.0	0.0	0.0	0.0	0.0	0.0	-0.048	
6.0	0.0	0.0	0.0	0.0	0.003	-0.057	
7.0	0.0	0.0	0.0	0.0	0.0	-0.045	
8.0	0.0	0.0	0.0	0.0	-0.019	-0.026	
9.0	0.0	0.0	0.0	0.0	-0.013	-0.019	
10.0	0.0	0.0	0.0	0.0	0.003	0.0	
11.0	0.0	0.0	0.0	0.0	-0.032	0.038	
12.0	0.0	0.0	0.0	0.0	-0.022	0.035	
13.0	0.0	0.0	0.0	0.0	-0.006	0.026	
14.0	0.0	0.0	0.0	0.0	-0.013	0.016	
15.0	0.0	0.0	0.0	0.0	0.0	-0.003	
0.0	0.0	0.0	0.0	0.0	0.003	-0.013	
1.0	0.0	0.0	0.0	0.0	0.026	-0.022	
2.0	0.0	0.0	0.0	0.0	0.026	-0.029	
3.0	0.0	0.0	0.0	0.0	0.035	-0.029	
4.0	0.0	0.0	0.0	0.0	0.029	-0.035	
5.0	0.0	0.0	0.0	0.0	0.022	-0.026	
6.0	0.0	0.0	0.0	0.0	0.022	-0.016	
7.0	0.0	0.0	0.0	0.0	0.022	-0.026	
8.0	0.0	0.0	0.0	0.0	0.019	-0.035	
9.0	0.0	0.0	0.0	0.0	0.022	-0.054	
10.0	0.0	0.0	0.0	0.0	0.0	-0.057	
11.0	0.0	0.0	0.0	0.0	-0.003	-0.051	
12.0	0.0	0.0	0.0	0.0	-0.016	-0.032	
13.0	0.0	0.0	0.0	0.0	-0.016	-0.022	
14.0	0.0	0.0	0.0	0.0	-0.035	0.003	
15.0	0.0	0.0	0.0	0.0	-0.048	0.045	
0.0	0.0	0.0	0.0	0.0	-0.042	0.042	
1.0	0.0	0.0	0.0	0.0	-0.016	0.032	
2.0	0.0	0.0	0.0	0.0	0.003	0.013	
3.0	0.0	0.0	0.0	0.0	0.003	0.0	
4.0	0.0	0.0	0.0	0.0	0.006	-0.006	
5.0	0.0	0.0	0.0	0.0	0.019	-0.01	
6.0	0.0	0.0	0.0	0.0	0.022	-0.019	
7.0	0.0	0.0	0.0	0.0	0.019	-0.026	
8.0	0.0	0.0	0.0	0.0	0.01	-0.032	
9.0	0.0	0.0	0.0	0.0	0.006	-0.026	
10.0	0.0	0.0	0.0	0.0	-0.003	-0.029	
11.0	0.0	0.0	0.0	0.0	-0.003	-0.026	
12.0	0.0	0.0	0.0	0.0	-0.003	-0.042	
13.0	0.0	0.0	0.0	0.0	0.003	-0.054	
14.0	0.0	0.0	0.0	0.0	0.0	-0.064	
15.0	0.0	0.0	0.0	0.0	0.0	-0.048	
0.0	0.0	0.0	0.0	0.0	0.0	-0.035	
1.0	0.0	0.0	0.0	0.0	0.022	-0.026	
2.0	0.0	0.0	0.0	0.0	-0.013	0.003	
3.0	0.0	0.0	0.0	0.0	-0.057	0.048	
4.0	0.0	0.0	0.0	0.0	-0.051	0.045	
5.0	0.0	0.0	0.0	0.0	-0.035	0.029	
6.0	0.0	0.0	0.0	0.0	-0.035	0.013	
7.0	0.0	0.0	0.0	0.0	-0.022	0.006	
8.0	0.0	0.0	0.0	0.0	-0.01	-0.016	
9.0	0.0	0.0	0.0	0.0	0.013	-0.016	
10.0	0.0	0.0	0.0	0.0	0.035	-0.022	
11.0	0.0	0.0	0.0	0.0	0.026	-0.029	
12.0	0.0	0.0	0.0	0.0	0.029	-0.035	
13.0	0.0	0.0	0.0	0.0	0.022	-0.022	
14.0	0.0	0.0	0.0	0.0	0.019	-0.019	
15.0	0.0	0.0	0.0	0.0	0.006	-0.026	
0.0	0.0	0.0	0.0	0.0	0.006	-0.038	
1.0	0.0	0.0	0.0	0.0	0.013	-0.048	
2.0	0.0	0.0	0.0	0.0	-0.003	-0.067	
3.0	0.0	0.0	0.0	0.0	0.01	-0.048	
4.0	0.0	0.0	0.0	0.0	0.013	-0.022	
5.0	0.0	0.0	0.0	0.0	0.019	-0.019	
6.0	0.0	0.0	0.0	0.0	-0.006	0.01	
7.0	0.0	0.0	0.0	0.0	-0.042	0.035	
8.0	0.0	0.0	0.0	0.0	-0.032	0.035	
9.0	0.0	0.0	0.0	0.0	-0.022	0.026	
10.0	0.0	0.0	0.0	0.0	-0.022	0.016	
11.0	0.0	0.0	0.0	0.0	-0.006	-0.003	
12.0	0.0	0.0	0.0	0.0	-0.003	-0.013	
13.0	0.0	0.0	0.0	0.0	0.016	-0.016	
14.0	0.0	0.0	0.0	0.0	0.019	-0.022	
15.0	0.0	0.0	0.0	0.0	0.016	-0.035	
0.0	0.0	0.0	0.0	0.0	0.01	-0.035	
1.0	0.0	0.0	0.0	0.0	0.003	-0.022	
2.0	0.0	0.0	0.0	0.0	0.0	-0.019	
3.0	0.0	0.0	0.0	0.0	-0.003	-0.026	
4.0	0.0	0.0	0.0	0.0	-0.003	-0.042	
5.0	0.0	0.0	0.0	0.0	0.003	-0.048	
6.0	0.0	0.0	0.0	0.0	0.006	-0.061	
7.0	0.0	0.0	0.0	0.0	0.035	-0.032	
8.0	0.0	0.0	0.0	0.0	0.026	-0.013	
9.0	0.0	0.0	0.0	0.0	0.01	-0.026	
10.0	0.0	0.0	0.0	0.0	-0.022	0.003	
11.0	0.0	0.0	0.0	0.0	-0.048	0.051	
12.0	0.0	0.0	0.0	0.0	-0.045	0.038	
13.0	0.0	0.0	0.0	0.0	-0.038	0.029	
14.0	0.0	0.0	0.0	0.0	-0.026	0.01	
15.0	0.0	0.0	0.0	0.0	-0.01	-0.003	
0.0	0.0	0.0	0.0	0.0	0.003	-0.013	
1.0	0.0	0.0	0.0	0.0	0.003	-0.013	
2.0	0.0	0.0	0.0	0.0	0.01	-0.022	
3.0	0.0	0.0	0.0	0.0	0.006	-0.022	
4.0	0.0	0.0	0.0	0.0	0.016	-0.032	
5.0	0.0	0.0	0.0	0.0	0.01	-0.022	
6.0	0.0	0.0	0.0	0.0	0.016	-0.022	
7.0	0.0	0.0	0.0	0.0	0.006	-0.032	
8.0	0.0	0.0	0.0	0.0	0.003	-0.042	
9.0	0.0	0.0	0.0	0.0	0.016	-0.054	
10.0	0.0	0.0	0.0	0.0	0.01	-0.073	
11.0	0.0	0.0	0.0	0.0	0.0	-0.054	
12.0	0.0	0.0	0.0	0.0	-0.01	-0.032	
13.0	0.0	0.0	0.0	0.0	-0.019	-0.016	
14.0	0.0	0.0	0.0	0.0	-0.026	0.006	
15.0	0.0	0.0	0.0	0.0	-0.038	0.042	
0.0	0.0	0.0	0.0	0.0	-0.016	0.042	
1.0	0.0	0.0	0.0	0.0	-0.003	0.029	
2.0	0.0	0.0	0.0	0.0	0.003	0.013	
3.0	0.0	0.0	0.0	0.0	0.019	-0.003	
4.0	0.0	0.0	0.0	0.0	0.032	-0.006	
5.0	0.0	0.0	0.0	0.0	0.035	-0.013	
6.0	0.0	0.0	0.0	0.0	0.029	-0.019	
7.0	0.0	0.0	0.0	0.0	0.019	-0.026	
8.0	0.0	0.0	0.0	0.0	0.006	-0.029	
9.0	0.0	0.0	0.0	0.0	-0.01	-0.026	
10.0	0.0	0.0	0.0	0.0	-0.029	-0.013	
11.0	0.0	0.0	0.0	0.0	-0.035	-0.026	
12.0	0.0	0.0	0.0	0.0	0.0	-0.032	
13.0	0.0	0.0	0.0	0.0	0.048	-0.057	
14.0	0.0	0.0	0.0	0.0	0.048	-0.064	
15.0	0.0	0.0	0.0	0.0	0.01	-0.054	
0.0	0.0	0.0	0.0	0.0	-0.016	-0.035	
1.0	0.0	0.0	0.0	0.0	-0.026	-0.029	
2.0	0.0	0.0	0.0	0.0	-0.057	0.003	
3.0	0.0	0.0	0.0	0.0	-0.067	0.042	
4.0	0.0	0.0	0.0	0.0	-0.026	0.042	
5.0	0.0	0.0	0.0	0.0	0.026	0.029	
6.0	0.0	0.0	0.0	0.0	0.061	0.013	
7.0	0.0	0.0	0.0	0.0	0.051	0.01	
8.0	0.0	0.0	0.0	0.0	0.013	0.0	
9.0	0.0	0.0	0.0	0.0	-0.016	-0.01	
10.0	0.0	0.0	0.0	0.0	-0.022	-0.013	
11.0	0.0	0.0	0.0	0.0	-0.035	-0.019	
12.0	0.0	0.0	0.0	0.0	-0.051	-0.026	
13.0	0.0	0.0	0.0	0.0	-0.048	-0.026	
14.0	0.0	0.0	0.0	0.0	-0.038	-0.026	
15.0	0.0	0.0	0.0	0.0	-0.032	-0.042	
0.0	0.0	0.0	0.0	0.0	-0.006	-0.042	
1.0	0.0	0.0	0.0	0.0	0.019	-0.061	
2.0	0.0	0.0	0.0	0.0	0.026	-0.054	
3.0	0.0	0.0	0.0	0.0	0.038	-0.051	
4.0	0.0	0.0	0.0	0.0	0.057	-0.026	
5.0	0.0	0.0	0.0	0.0	0.054	-0.029	
6.0	0.0	0.0	0.0	0.0	0.006	0.0	
7.0	0.0	0.0	0.0	0.0	-0.022	0.032	
8.0	0.0	0.0	0.0	0.0	-0.022	0.038	
9.0	0.0	0.0	0.0	0.0	-0.022	0.026	
10.0	0.0	0.0	0.0	0.0	-0.016	0.01	
11.0	0.0	0.0	0.0	0.0	-0.003	-0.003	
12.0	0.0	0.0	0.0	0.0	0.006	-0.006	
13.0	0.0	0.0	0.0	0.0	0.016	-0.016	
14.0	0.0	0.0	0.0	0.0	0.019	-0.01	
15.0	0.0	0.0	0.0	0.0	0.006	-0.026	
0.0	0.0	0.0	0.0	0.0	0.006	-0.019	
1.0	0.0	0.0	0.0	0.0	0.003	-0.013	
2.0	0.0	0.0	0.0	0.0	-0.013	-0.016	
3.0	0.0	0.0	0.0	0.0	-0.019	-0.035	
4.0	0.0	0.0	0.0	0.0	-0.026	-0.042	
5.0	0.0	0.0	0.0	0.0	-0.003	-0.061	
6.0	0.0	0.0	0.0	0.0	-0.006	-0.067	
7.0	0.0	0.0	0.0	0.0	0.006	-0.051	
8.0	0.0	0.0	0.0	0.0	0.0	-0.022	
9.0	0.0	0.0	0.0	0.0	0.003	-0.032	
10.0	0.0	0.0	0.0	0.0	-0.01	0.0	
11.0	0.0	0.0	0.0	0.0	-0.026	0.042	
12.0	0.0	0.0	0.0	0.0	-0.016	0.038	
13.0	0.0	0.0	0.0	0.0	0.003	0.026	
14.0	0.0	0.0	0.0	0.0	0.003	0.01	
15.0	0.0	0.0	0.0	0.0	0.022	0.0	
0.0	0.0	0.0	0.0	0.0	0.035	-0.016	
1.0	0.0	0.0	0.0	0.0	0.042	-0.022	
2.0	0.0	0.0	0.0	0.0	0.035	-0.013	
3.0	0.0	0.0	0.0	0.0	0.026	-0.032	
4.0	0.0	0.0	0.0	0.0	0.01	-0.026	
5.0	0.0	0.0	0.0	0.0	0.0	-0.022	
6.0	0.0	0.0	0.0	0.0	-0.016	-0.013	
7.0	0.0	0.0	0.0	0.0	-0.013	-0.022	
8.0	0.0	0.0	0.0	0.0	-0.013	-0.032	
9.0	0.0	0.0	0.0	0.0	0.003	-0.051	
10.0	0.0	0.0	0.0	0.0	0.0	-0.057	
11.0	0.0	0.0	0.0	0.0	-0.019	-0.042	
12.0	0.0	0.0	0.0	0.0	-0.029	-0.026	
13.0	0.0	0.0	0.0	0.0	-0.019	-0.022	
14.0	0.0	0.0	0.0	0.0	-0.038	0.006	
15.0	0.0	0.0	0.0	0.0	-0.045	0.038	
0.0	0.0	0.0	0.0	0.0	-0.032	0.038	
1.0	0.0	0.0	0.0	0.0	-0.016	0.029	
2.0	0.0	0.0	0.0	0.0	0.003	0.01	
3.0	0.0	0.0	0.0	0.0	0.01	-0.013	
4.0	0.0	0.0	0.0	0.0	0.01	-0.016	
5.0	0.0	0.0	0.0	0.0	0.019	-0.016	
6.0	0.0	0.0	0.0	0.0	0.019	-0.019	
7.0	0.0	0.0	0.0	0.0	0.022	-0.029	
8.0	0.0	0.0	0.0	0.0	0.022	-0.035	
9.0	0.0	0.0	0.0	0.0	0.029	-0.026	
10.0	0.0	0.0	0.0	0.0	0.048	-0.026	
11.0	0.0	0.0	0.0	0.0	0.051	-0.019	
12.0	0.0	0.0	0.0	0.0	0.038	-0.026	
13.0	0.0	0.0	0.0	0.0	0.042	-0.048	
14.0	0.0	0.0	0.0	0.0	0.057	-0.061	
15.0	0.0	0.0	0.0	0.0	0.029	-0.045	
0.0	0.0	0.0	0.0	0.0	-0.016	-0.026	
1.0	0.0	0.0	0.0	0.0	-0.038	-0.019	
2.0	0.0	0.0	0.0	0.0	-0.086	0.01	
3.0	0.0	0.0	0.0	0.0	-0.067	0.048	
4.0	0.0	0.0	0.0	0.0	-0.051	0.045	
5.0	0.0	0.0	0.0	0.0	-0.042	0.026	
6.0	0.0	0.0	0.0	0.0	-0.022	0.01	
7.0	0.0	0.0	0.0	0.0	-0.019	-0.003	
8.0	0.0	0.0	0.0	0.0	-0.029	-0.01	
9.0	0.0	0.0	0.0	0.0	-0.032	-0.01	
10.0	0.0	0.0	0.0	0.0	-0.054	-0.022	
11.0	0.0	0.0	0.0	0.0	-0.061	-0.032	
12.0	0.0	0.0	0.0	0.0	-0.029	-0.032	
13.0	0.0	0.0	0.0	0.0	-0.01	-0.029	
14.0	0.0	0.0	0.0	0.0	0.01	-0.029	
15.0	0.0	0.0	0.0	0.0	0.016	-0.038	
0.0	0.0	0.0	0.0	0.0	0.022	-0.045	
1.0	0.0	0.0	0.0	0.0	0.051	-0.057	
2.0	0.0	0.0	0.0	0.0	0.042	-0.057	
3.0	0.0	0.0	0.0	0.0	0.035	-0.038	
4.0	0.0	0.0	0.0	0.0	0.019	-0.029	
5.0	0.0	0.0	0.0	0.0	0.013	-0.022	
6.0	0.0	0.0	0.0	0.0	-0.01	0.006	
7.0	0.0	0.0	0.0	0.0	-0.029	0.048	
8.0	0.0	0.0	0.0	0.0	-0.019	0.045	
9.0	0.0	0.0	0.0	0.0	0.01	0.032	
10.0	0.0	0.0	0.0	0.0	0.019	0.013	
11.0	0.0	0.0	0.0	0.0	0.016	-0.003	
12.0	0.0	0.0	0.0	0.0	0.016	-0.013	
13.0	0.0	0.0	0.0	0.0	0.01	-0.013	
14.0	0.0	0.0	0.0	0.0	0.006	-0.013	
15.0	0.0	0.0	0.0	0.0	0.019	-0.026	
0.0	0.0	0.0	0.0	0.0	0.054	-0.035	
1.0	0.0	0.0	0.0	0.0	0.035	-0.026	
2.0	0.0	0.0	0.0	0.0	0.01	-0.026	
3.0	0.0	0.0	0.0	0.0	-0.022	-0.026	
4.0	0.0	0.0	0.0	0.0	-0.029	-0.038	
5.0	0.0	0.0	0.0	0.0	-0.026	-0.054	
6.0	0.0	0.0	0.0	0.0	-0.022	-0.061	
7.0	0.0	0.0	0.0	0.0	-0.026	-0.054	
8.0	0.0	0.0	0.0	0.0	-0.022	-0.026	
9.0	0.0	0.0	0.0	0.0	-0.003	-0.029	
10.0	0.0	0.0	0.0	0.0	-0.019	0.0	
11.0	0.0	0.0	0.0	0.0	-0.029	0.038	
12.0	0.0	0.0	0.0	0.0	-0.019	0.038	
13.0	0.0	0.0	0.0	0.0	-0.013	0.029	
14.0	0.0	0.0	0.0	0.0	-0.006	0.01	
15.0	0.0	0.0	0.0	0.0	-0.003	0.0	
0.0	0.0	0.0	0.0	0.0	0.0	-0.01	
1.0	0.0	0.0	0.0	0.0	0.01	-0.016	
2.0	0.0	0.0	0.0	0.0	0.003	-0.016	
3.0	0.0	0.0	0.0	0.0	0.01	-0.026	
4.0	0.0	0.0	0.0	0.0	0.022	-0.032	
5.0	0.0	0.0	0.0	0.0	0.016	-0.029	
6.0	0.0	0.0	0.0	0.0	0.013	-0.029	
7.0	0.0	0.0	0.0	0.0	0.016	-0.026	
8.0	0.0	0.0	0.0	0.0	0.019	-0.022	
9.0	0.0	0.0	0.0	0.0	0.026	-0.048	
10.0	0.0	0.0	0.0	0.0	0.013	-0.054	
11.0	0.0	0.0	0.0	0.0	0.006	-0.045	
12.0	0.0	0.0	0.0	0.0	0.003	-0.026	
13.0	0.0	0.0	0.0	0.0	0.045	-0.026	
14.0	0.0	0.0	0.0	0.0	0.035	0.003	
15.0	0.0	0.0	0.0	0.0	0.026	0.045	
0.0	0.0	0.0	0.0	0.0	0.003	0.045	
1.0	0.0	0.0	0.0	0.0	-0.016	0.035	
2.0	0.0	0.0	0.0	0.0	-0.038	0.01	
3.0	0.0	0.0	0.0	0.0	-0.051	0.0	
4.0	0.0	0.0	0.0	0.0	-0.057	-0.006	
5.0	0.0	0.0	0.0	0.0	-0.042	-0.019	
6.0	0.0	0.0	0.0	0.0	-0.029	-0.022	
7.0	0.0	0.0	0.0	0.0	-0.01	-0.029	
8.0	0.0	0.0	0.0	0.0	0.0	-0.029	
9.0	0.0	0.0	0.0	0.0	0.003	-0.022	
10.0	0.0	0.0	0.0	0.0	0.01	-0.029	
11.0	0.0	0.0	0.0	0.0	0.0	-0.029	
12.0	0.0	0.0	0.0	0.0	-0.013	-0.032	
13.0	0.0	0.0	0.0	0.0	0.0	-0.054	
14.0	0.0	0.0	0.0	0.0	-0.006	-0.061	
15.0	0.0	0.0	0.0	0.0	0.006	-0.054	
0.0	0.0	0.0	0.0	0.0	0.026	-0.035	
1.0	0.0	0.0	0.0	0.0	0.026	-0.035	
2.0	0.0	0.0	0.0	0.0	-0.003	0.003	
3.0	0.0	0.0	0.0	0.0	-0.035	0.042	
4.0	0.0	0.0	0.0	0.0	-0.022	0.045	
5.0	0.0	0.0	0.0	0.0	0.01	0.035	
6.0	0.0	0.0	0.0	0.0	0.022	0.019	
7.0	0.0	0.0	0.0	0.0	0.026	0.006	
8.0	0.0	0.0	0.0	0.0	0.013	0.0	
9.0	0.0	0.0	0.0	0.0	0.019	-0.006	
10.0	0.0	0.0	0.0	0.0	0.019	-0.013	
11.0	0.0	0.0	0.0	0.0	0.003	-0.022	
12.0	0.0	0.0	0.0	0.0	-0.003	-0.026	
13.0	0.0	0.0	0.0	0.0	-0.006	-0.016	
14.0	0.0	0.0	0.0	0.0	-0.013	-0.022	
15.0	0.0	0.0	0.0	0.0	-0.013	-0.032	
0.0	0.0	0.0	0.0	0.0	0.0	-0.029	
1.0	0.0	0.0	0.0	0.0	0.0	-0.064	
2.0	0.0	0.0	0.0	0.0	-0.013	-0.067	
3.0	0.0	0.0	0.0	0.0	-0.013	-0.045	
4.0	0.0	0.0	0.0	0.0	-0.022	-0.029	
5.0	0.0	0.0	0.0	0.0	-0.019	-0.038	
6.0	0.0	0.0	0.0	0.0	-0.035	-0.006	
7.0	0.0	0.0	0.0	0.0	-0.048	0.032	
8.0	0.0	0.0	0.0	0.0	-0.029	0.032	
9.0	0.0	0.0	0.0	0.0	-0.01	0.029	
10.0	0.0	0.0	0.0	0.0	-0.003	0.013	
11.0	0.0	0.0	0.0	0.0	0.016	0.0	
12.0	0.0	0.0	0.0	0.0	0.019	-0.013	
13.0	0.0	0.0	0.0	0.0	0.029	-0.016	
14.0	0.0	0.0	0.0	0.0	0.035	-0.019	
15.0	0.0	0.0	0.0	0.0	0.026	-0.029	
0.0	0.0	0.0	0.0	0.0	0.01	-0.038	
1.0	0.0	0.0	0.0	0.0	0.013	-0.026	
2.0	0.0	0.0	0.0	0.0	0.013	-0.029	
3.0	0.0	0.0	0.0	0.0	0.013	-0.022	
4.0	0.0	0.0	0.0	0.0	0.013	-0.026	
5.0	0.0	0.0	0.0	0.0	0.022	-0.054	
6.0	0.0	0.0	0.0	0.0	0.013	-0.057	
7.0	0.0	0.0	0.0	0.0	0.01	-0.035	
8.0	0.0	0.0	0.0	0.0	-0.013	-0.029	
9.0	0.0	0.0	0.0	0.0	0.0	-0.026	
10.0	0.0	0.0	0.0	0.0	-0.019	0.0	
11.0	0.0	0.0	0.0	0.0	-0.038	0.038	
12.0	0.0	0.0	0.0	0.0	-0.026	0.048	
13.0	0.0	0.0	0.0	0.0	-0.013	0.032	
14.0	0.0	0.0	0.0	0.0	-0.01	0.01	
15.0	0.0	0.0	0.0	0.0	-0.003	0.0	
0.0	0.0	0.0	0.0	0.0	0.003	-0.019	
1.0	0.0	0.0	0.0	0.0	0.032	-0.013	
2.0	0.0	0.0	0.0	0.0	0.026	-0.013	
3.0	0.0	0.0	0.0	0.0	0.022	-0.026	
4.0	0.0	0.0	0.0	0.0	0.019	-0.026	
5.0	0.0	0.0	0.0	0.0	0.016	-0.026	
6.0	0.0	0.0	0.0	0.0	0.01	-0.026	
7.0	0.0	0.0	0.0	0.0	-0.003	-0.032	
8.0	0.0	0.0	0.0	0.0	0.003	-0.035	
9.0	0.0	0.0	0.0	0.0	0.045	-0.061	
10.0	0.0	0.0	0.0	0.0	0.048	-0.064	
11.0	0.0	0.0	0.0	0.0	0.019	-0.038	
12.0	0.0	0.0	0.0	0.0	-0.016	-0.022	
13.0	0.0	0.0	0.0	0.0	-0.038	-0.022	
14.0	0.0	0.0	0.0	0.0	-0.08	0.013	
15.0	0.0	0.0	0.0	0.0	-0.112	0.045	
0.0	0.0	0.0	0.0	0.0	-0.102	0.045	
1.0	0.0	0.0	0.0	0.0	-0.073	0.029	
2.0	0.0	0.0	0.0	0.0	-0.035	0.006	
3.0	0.0	0.0	0.0	0.0	-0.013	-0.006	
4.0	0.0	0.0	0.0	0.0	-0.006	-0.013	
5.0	0.0	0.0	0.0	0.0	0.019	-0.016	
6.0	0.0	0.0	0.0	0.0	0.035	-0.026	
7.0	0.0	0.0	0.0	0.0	0.032	-0.026	
8.0	0.0	0.0	0.0	0.0	0.022	-0.029	
9.0	0.0	0.0	0.0	0.0	0.035	-0.029	
10.0	0.0	0.0	0.0	0.0	0.051	-0.026	
11.0	0.0	0.0	0.0	0.0	0.032	-0.035	
12.0	0.0	0.0	0.0	0.0	0.035	-0.035	
13.0	0.0	0.0	0.0	0.0	0.029	-0.061	
14.0	0.0	0.0	0.0	0.0	0.029	-0.061	
15.0	0.0	0.0	0.0	0.0	0.013	-0.032	
0.0	0.0	0.0	0.0	0.0	-0.01	-0.016	
1.0	0.0	0.0	0.0	0.0	-0.019	-0.029	
2.0	0.0	0.0	0.0	0.0	-0.032	0.003	
3.0	0.0	0.0	0.0	0.0	-0.042	0.048	
4.0	0.0	0.0	0.0	0.0	-0.032	0.038	
5.0	0.0	0.0	0.0	0.0	-0.019	0.026	
6.0	0.0	0.0	0.0	0.0	-0.013	0.006	
7.0	0.0	0.0	0.0	0.0	0.0	-0.006	
8.0	0.0	0.0	0.0	0.0	0.0	-0.013	
9.0	0.0	0.0	0.0	0.0	0.013	-0.01	
10.0	0.0	0.0	0.0	0.0	0.01	-0.022	
11.0	0.0	0.0	0.0	0.0	0.003	-0.029	
12.0	0.0	0.0	0.0	0.0	-0.003	-0.038	
13.0	0.0	0.0	0.0	0.0	-0.003	-0.035	
14.0	0.0	0.0	0.0	0.0	0.003	-0.032	
15.0	0.0	0.0	0.0	0.0	0.01	-0.032	
0.0	0.0	0.0	0.0	0.0	0.022	-0.038	
1.0	0.0	0.0	0.0	0.0	0.022	-0.048	
2.0	0.0	0.0	0.0	0.0	0.032	-0.051	
3.0	0.0	0.0	0.0	0.0	0.07	-0.042	
4.0	0.0	0.0	0.0	0.0	0.054	-0.022	
5.0	0.0	0.0	0.0	0.0	0.022	-0.016	
6.0	0.0	0.0	0.0	0.0	-0.022	0.013	
7.0	0.0	0.0	0.0	0.0	-0.051	0.048	
8.0	0.0	0.0	0.0	0.0	-0.064	0.048	
9.0	0.0	0.0	0.0	0.0	-0.061	0.035	
10.0	0.0	0.0	0.0	0.0	-0.064	0.019	
11.0	0.0	0.0	0.0	0.0	-0.042	0.0	
12.0	0.0	0.0	0.0	0.0	-0.01	-0.019	
13.0	0.0	0.0	0.0	0.0	-0.003	-0.013	
14.0	0.0	0.0	0.0	0.0	0.013	-0.019	
15.0	0.0	0.0	0.0	0.0	0.019	-0.032	
0.0	0.0	0.0	0.0	0.0	0.01	-0.032	
1.0	0.0	0.0	0.0	0.0	0.022	-0.029	
2.0	0.0	0.0	0.0	0.0	0.016	-0.022	
3.0	0.0	0.0	0.0	0.0	0.013	-0.029	
4.0	0.0	0.0	0.0	0.0	0.01	-0.032	
5.0	0.0	0.0	0.0	0.0	0.013	-0.054	
6.0	0.0	0.0	0.0	0.0	0.006	-0.057	
7.0	0.0	0.0	0.0	0.0	0.0	-0.045	
8.0	0.0	0.0	0.0	0.0	0.013	-0.026	
9.0	0.0	0.0	0.0	0.0	0.016	-0.026	
10.0	0.0	0.0	0.0	0.0	0.003	0.003	
11.0	0.0	0.0	0.0	0.0	0.022	0.035	
12.0	0.0	0.0	0.0	0.0	0.029	0.038	
13.0	0.0	0.0	0.0	0.0	0.026	0.022	
14.0	0.0	0.0	0.0	0.0	0.013	0.01	
15.0	0.0	0.0	0.0	0.0	0.0	-0.006	
0.0	0.0	0.0	0.0	0.0	-0.013	-0.01	
1.0	0.0	0.0	0.0	0.0	-0.019	-0.006	
2.0	0.0	0.0	0.0	0.0	-0.029	-0.003	
3.0	0.0	0.0	0.0	0.0	-0.042	-0.022	
4.0	0.0	0.0	0.0	0.0	-0.042	-0.026	
5.0	0.0	0.0	0.0	0.0	-0.029	-0.022	
6.0	0.0	0.0	0.0	0.0	-0.016	-0.022	
7.0	0.0	0.0	0.0	0.0	0.006	-0.026	
8.0	0.0	0.0	0.0	0.0	0.01	-0.032	
9.0	0.0	0.0	0.0	0.0	0.003	-0.051	
10.0	0.0	0.0	0.0	0.0	-0.006	-0.057	
11.0	0.0	0.0	0.0	0.0	-0.003	-0.054	
12.0	0.0	0.0	0.0	0.0	-0.003	-0.038	
13.0	0.0	0.0	0.0	0.0	-0.013	-0.035	
14.0	0.0	0.0	0.0	0.0	-0.032	0.003	
15.0	0.0	0.0	0.0	0.0	-0.032	0.042	
0.0	0.0	0.0	0.0	0.0	-0.026	0.038	
1.0	0.0	0.0	0.0	0.0	-0.019	0.026	
2.0	0.0	0.0	0.0	0.0	0.029	0.0	
3.0	0.0	0.0	0.0	0.0	0.035	-0.01	
4.0	0.0	0.0	0.0	0.0	0.022	-0.026	
5.0	0.0	0.0	0.0	0.0	0.01	-0.013	
6.0	0.0	0.0	0.0	0.0	0.003	-0.01	
7.0	0.0	0.0	0.0	0.0	-0.006	-0.016	
8.0	0.0	0.0	0.0	0.0	-0.01	-0.022	
9.0	0.0	0.0	0.0	0.0	-0.006	-0.019	
10.0	0.0	0.0	0.0	0.0	-0.003	-0.022	
11.0	0.0	0.0	0.0	0.0	-0.013	-0.026	
12.0	0.0	0.0	0.0	0.0	0.0	-0.038	
13.0	0.0	0.0	0.0	0.0	0.019	-0.057	
14.0	0.0	0.0	0.0	0.0	0.01	-0.061	
15.0	0.0	0.0	0.0	0.0	0.016	-0.045	
0.0	0.0	0.0	0.0	0.0	0.01	-0.019	
1.0	0.0	0.0	0.0	0.0	0.022	-0.029	
2.0	0.0	0.0	0.0	0.0	-0.006	0.01	
3.0	0.0	0.0	0.0	0.0	-0.029	0.048	
4.0	0.0	0.0	0.0	0.0	-0.019	0.048	
5.0	0.0	0.0	0.0	0.0	-0.016	0.032	
6.0	0.0	0.0	0.0	0.0	-0.006	0.006	
7.0	0.0	0.0	0.0	0.0	-0.003	-0.003	
8.0	0.0	0.0	0.0	0.0	0.01	-0.01	
9.0	0.0	0.0	0.0	0.0	0.022	-0.013	
10.0	0.0	0.0	0.0	0.0	0.022	-0.013	
11.0	0.0	0.0	0.0	0.0	0.022	-0.035	
12.0	0.0	0.0	0.0	0.0	0.019	-0.035	
13.0	0.0	0.0	0.0	0.0	0.038	-0.022	
14.0	0.0	0.0	0.0	0.0	0.061	-0.032	
15.0	0.0	0.0	0.0	0.0	0.042	-0.032	
0.0	0.0	0.0	0.0	0.0	0.006	-0.042	
1.0	0.0	0.0	0.0	0.0	-0.006	-0.057	
2.0	0.0	0.0	0.0	0.0	-0.026	-0.061	
3.0	0.0	0.0	0.0	0.0	-0.038	-0.035	
4.0	0.0	0.0	0.0	0.0	-0.054	-0.016	
5.0	0.0	0.0	0.0	0.0	-0.057	-0.019	
6.0	0.0	0.0	0.0	0.0	-0.057	0.016	
7.0	0.0	0.0	0.0	0.0	-0.054	0.042	
8.0	0.0	0.0	0.0	0.0	-0.038	0.035	
9.0	0.0	0.0	0.0	0.0	-0.019	0.035	
10.0	0.0	0.0	0.0	0.0	0.0	0.006	
11.0	0.0	0.0	0.0	0.0	0.016	-0.003	
12.0	0.0	0.0	0.0	0.0	0.022	-0.016	
13.0	0.0	0.0	0.0	0.0	0.038	-0.022	
14.0	0.0	0.0	0.0	0.0	0.038	-0.029	
15.0	0.0	0.0	0.0	0.0	0.029	-0.032	
0.0	0.0	0.0	0.0	0.0	0.022	-0.035	
1.0	0.0	0.0	0.0	0.0	0.01	-0.029	
2.0	0.0	0.0	0.0	0.0	0.01	-0.029	
3.0	0.0	0.0	0.0	0.0	0.01	-0.022	
4.0	0.0	0.0	0.0	0.0	0.038	-0.029	
5.0	0.0	0.0	0.0	0.0	0.048	-0.051	
6.0	0.0	0.0	0.0	0.0	0.029	-0.054	
7.0	0.0	0.0	0.0	0.0	0.0	-0.042	
8.0	0.0	0.0	0.0	0.0	-0.016	-0.022	
9.0	0.0	0.0	0.0	0.0	-0.029	-0.026	
10.0	0.0	0.0	0.0	0.0	-0.051	0.0	
11.0	0.0	0.0	0.0	0.0	-0.051	0.042	
12.0	0.0	0.0	0.0	0.0	-0.029	0.035	
13.0	0.0	0.0	0.0	0.0	-0.013	0.026	
14.0	0.0	0.0	0.0	0.0	0.0	0.01	
15.0	0.0	0.0	0.0	0.0	0.0	-0.01	
0.0	0.0	0.0	0.0	0.0	0.01	-0.013	
1.0	0.0	0.0	0.0	0.0	0.038	-0.019	
2.0	0.0	0.0	0.0	0.0	0.032	-0.013	
3.0	0.0	0.0	0.0	0.0	0.003	-0.029	
4.0	0.0	0.0	0.0	0.0	-0.013	-0.032	
5.0	0.0	0.0	0.0	0.0	-0.022	-0.029	
6.0	0.0	0.0	0.0	0.0	0.003	-0.032	
7.0	0.0	0.0	0.0	0.0	-0.016	-0.029	
8.0	0.0	0.0	0.0	0.0	-0.026	-0.038	
9.0	0.0	0.0	0.0	0.0	-0.013	-0.054	
10.0	0.0	0.0	0.0	0.0	-0.038	-0.045	
11.0	0.0	0.0	0.0	0.0	-0.042	-0.038	
12.0	0.0	0.0	0.0	0.0	-0.048	-0.019	
13.0	0.0	0.0	0.0	0.0	-0.029	-0.026	
14.0	0.0	0.0	0.0	0.0	-0.01	0.006	
15.0	0.0	0.0	0.0	0.0	-0.01	0.038	
0.0	0.0	0.0	0.0	0.0	0.003	0.038	
1.0	0.0	0.0	0.0	0.0	0.01	0.029	
2.0	0.0	0.0	0.0	0.0	0.013	0.013	
3.0	0.0	0.0	0.0	0.0	0.013	0.006	
4.0	0.0	0.0	0.0	0.0	0.006	-0.016	
5.0	0.0	0.0	0.0	0.0	0.022	-0.016	
6.0	0.0	0.0	0.0	0.0	0.048	-0.026	
7.0	0.0	0.0	0.0	0.0	0.051	-0.032	
8.0	0.0	0.0	0.0	0.0	0.026	-0.026	
9.0	0.0	0.0	0.0	0.0	0.019	-0.019	
10.0	0.0	0.0	0.0	0.0	0.003	-0.022	
11.0	0.0	0.0	0.0	0.0	-0.013	-0.032	
12.0	0.0	0.0	0.0	0.0	-0.016	-0.035	
13.0	0.0	0.0	0.0	0.0	0.0	-0.057	
14.0	0.0	0.0	0.0	0.0	-0.01	-0.057	
15.0	0.0	0.0	0.0	0.0	-0.019	-0.042	
0.0	0.0	0.0	0.0	0.0	-0.01	-0.022	
1.0	0.0	0.0	0.0	0.0	-0.003	-0.026	
2.0	0.0	0.0	0.0	0.0	-0.016	0.013	
3.0	0.0	0.0	0.0	0.0	-0.019	0.045	
4.0	0.0	0.0	0.0	0.0	-0.003	0.035	
5.0	0.0	0.0	0.0	0.0	-0.01	0.029	
6.0	0.0	0.0	0.0	0.0	-0.003	0.013	
7.0	0.0	0.0	0.0	0.0	0.003	-0.003	
8.0	0.0	0.0	0.0	0.0	0.003	-0.013	
9.0	0.0	0.0	0.0	0.0	0.016	-0.013	
10.0	0.0	0.0	0.0	0.0	0.016	-0.026	
11.0	0.0	0.0	0.0	0.0	0.038	-0.035	
12.0	0.0	0.0	0.0	0.0	0.048	-0.035	
13.0	0.0	0.0	0.0	0.0	0.035	-0.022	
14.0	0.0	0.0	0.0	0.0	0.032	-0.019	
15.0	0.0	0.0	0.0	0.0	0.006	-0.016	
0.0	0.0	0.0	0.0	0.0	-0.013	-0.038	
1.0	0.0	0.0	0.0	0.0	0.019	-0.054	
2.0	0.0	0.0	0.0	0.0	0.035	-0.064	
3.0	0.0	0.0	0.0	0.0	0.013	-0.042	
4.0	0.0	0.0	0.0	0.0	-0.013	-0.022	
5.0	0.0	0.0	0.0	0.0	0.0	-0.026	
6.0	0.0	0.0	0.0	0.0	-0.042	0.01	
7.0	0.0	0.0	0.0	0.0	-0.08	0.045	
8.0	0.0	0.0	0.0	0.0	-0.099	0.035	
9.0	0.0	0.0	0.0	0.0	-0.093	0.026	
10.0	0.0	0.0	0.0	0.0	-0.064	-0.003	
11.0	0.0	0.0	0.0	0.0	-0.026	-0.006	
12.0	0.0	0.0	0.0	0.0	0.0	-0.019	
13.0	0.0	0.0	0.0	0.0	0.026	-0.01	
14.0	0.0	0.0	0.0	0.0	0.048	-0.006	
15.0	0.0	0.0	0.0	0.0	0.054	-0.022	
0.0	0.0	0.0	0.0	0.0	0.045	-0.032	
1.0	0.0	0.0	0.0	0.0	0.022	-0.035	
2.0	0.0	0.0	0.0	0.0	0.016	-0.022	
3.0	0.0	0.0	0.0	0.0	0.0	-0.026	
4.0	0.0	0.0	0.0	0.0	-0.006	-0.038	
5.0	0.0	0.0	0.0	0.0	-0.006	-0.054	
6.0	0.0	0.0	0.0	0.0	0.019	-0.054	
7.0	0.0	0.0	0.0	0.0	0.038	-0.038	
8.0	0.0	0.0	0.0	0.0	0.013	-0.022	
9.0	0.0	0.0	0.0	0.0	-0.01	-0.022	
10.0	0.0	0.0	0.0	0.0	-0.042	0.016	
11.0	0.0	0.0	0.0	0.0	-0.064	0.045	
12.0	0.0	0.0	0.0	0.0	-0.032	0.042	
13.0	0.0	0.0	0.0	0.0	-0.013	0.022	
14.0	0.0	0.0	0.0	0.0	0.064	0.006	
15.0	0.0	0.0	0.0	0.0	0.099	-0.003	
0.0	0.0	0.0	0.0	0.0	0.093	-0.016	
1.0	0.0	0.0	0.0	0.0	0.038	-0.019	
2.0	0.0	0.0	0.0	0.0	-0.013	-0.022	
3.0	0.0	0.0	0.0	0.0	-0.042	-0.032	
4.0	0.0	0.0	0.0	0.0	-0.054	-0.026	
5.0	0.0	0.0	0.0	0.0	-0.077	-0.029	
6.0	0.0	0.0	0.0	0.0	-0.096	-0.022	
7.0	0.0	0.0	0.0	0.0	-0.08	-0.026	
8.0	0.0	0.0	0.0	0.0	-0.061	-0.035	
9.0	0.0	0.0	0.0	0.0	-0.045	-0.061	
10.0	0.0	0.0	0.0	0.0	-0.01	-0.061	
11.0	0.0	0.0	0.0	0.0	0.019	-0.051	
12.0	0.0	0.0	0.0	0.0	0.032	-0.038	
13.0	0.0	0.0	0.0	0.0	0.032	-0.035	
14.0	0.0	0.0	0.0	0.0	0.003	-0.003	
15.0	0.0	0.0	0.0	0.0	-0.013	0.042	
0.0	0.0	0.0	0.0	0.0	-0.01	0.048	
1.0	0.0	0.0	0.0	0.0	-0.006	0.035	
2.0	0.0	0.0	0.0	0.0	0.006	0.013	
3.0	0.0	0.0	0.0	0.0	0.022	0.013	
4.0	0.0	0.0	0.0	0.0	0.035	0.003	
5.0	0.0	0.0	0.0	0.0	0.035	0.0	
6.0	0.0	0.0	0.0	0.0	0.032	-0.006	
7.0	0.0	0.0	0.0	0.0	0.022	-0.026	
8.0	0.0	0.0	0.0	0.0	-0.003	-0.032	
9.0	0.0	0.0	0.0	0.0	0.0	-0.026	
10.0	0.0	0.0	0.0	0.0	0.006	-0.022	
11.0	0.0	0.0	0.0	0.0	0.016	-0.029	
12.0	0.0	0.0	0.0	0.0	0.029	-0.042	
13.0	0.0	0.0	0.0	0.0	0.067	-0.061	
14.0	0.0	0.0	0.0	0.0	0.07	-0.054	
15.0	0.0	0.0	0.0	0.0	0.035	-0.051	
0.0	0.0	0.0	0.0	0.0	0.006	-0.026	
1.0	0.0	0.0	0.0	0.0	-0.019	-0.026	
2.0	0.0	0.0	0.0	0.0	-0.051	0.013	
3.0	0.0	0.0	0.0	0.0	-0.077	0.048	
4.0	0.0	0.0	0.0	0.0	-0.083	0.035	
5.0	0.0	0.0	0.0	0.0	-0.061	0.029	
6.0	0.0	0.0	0.0	0.0	-0.045	0.016	
7.0	0.0	0.0	0.0	0.0	-0.016	-0.01	
8.0	0.0	0.0	0.0	0.0	0.019	-0.022	
9.0	0.0	0.0	0.0	0.0	0.051	-0.026	
10.0	0.0	0.0	0.0	0.0	0.048	-0.026	
11.0	0.0	0.0	0.0	0.0	0.032	-0.038	
12.0	0.0	0.0	0.0	0.0	0.016	-0.038	
13.0	0.0	0.0	0.0	0.0	-0.006	-0.019	
14.0	0.0	0.0	0.0	0.0	-0.022	-0.016	
15.0	0.0	0.0	0.0	0.0	-0.029	-0.026	
0.0	0.0	0.0	0.0	0.0	-0.022	-0.035	
1.0	0.0	0.0	0.0	0.0	0.003	-0.057	
2.0	0.0	0.0	0.0	0.0	0.013	-0.051	
3.0	0.0	0.0	0.0	0.0	0.022	-0.042	
4.0	0.0	0.0	0.0	0.0	0.016	-0.016	
5.0	0.0	0.0	0.0	0.0	0.01	-0.026	
6.0	0.0	0.0	0.0	0.0	-0.026	0.016	
7.0	0.0	0.0	0.0	0.0	-0.035	0.045	
8.0	0.0	0.0	0.0	0.0	-0.019	0.035	
9.0	0.0	0.0	0.0	0.0	-0.006	0.022	
10.0	0.0	0.0	0.0	0.0	0.016	0.003	
11.0	0.0	0.0	0.0	0.0	0.035	-0.006	
12.0	0.0	0.0	0.0	0.0	0.029	-0.013	
13.0	0.0	0.0	0.0	0.0	0.019	-0.016	
14.0	0.0	0.0	0.0	0.0	0.003	-0.019	
15.0	0.0	0.0	0.0	0.0	-0.01	-0.026	
0.0	0.0	0.0	0.0	0.0	-0.022	-0.029	
1.0	0.0	0.0	0.0	0.0	-0.016	-0.022	
2.0	0.0	0.0	0.0	0.0	-0.006	-0.022	
3.0	0.0	0.0	0.0	0.0	0.022	-0.026	
4.0	0.0	0.0	0.0	0.0	0.016	-0.035	
5.0	0.0	0.0	0.0	0.0	0.013	-0.054	
6.0	0.0	0.0	0.0	0.0	-0.01	-0.064	
7.0	0.0	0.0	0.0	0.0	-0.013	-0.045	
8.0	0.0	0.0	0.0	0.0	-0.038	-0.026	
9.0	0.0	0.0	0.0	0.0	-0.026	-0.022	
10.0	0.0	0.0	0.0	0.0	-0.038	0.003	
11.0	0.0	0.0	0.0	0.0	-0.051	0.042	
12.0	0.0	0.0	0.0	0.0	-0.022	0.035	
13.0	0.0	0.0	0.0	0.0	-0.006	0.029	
14.0	0.0	0.0	0.0	0.0	0.003	0.019	
15.0	0.0	0.0	0.0	0.0	0.026	0.003	
0.0	0.0	0.0	0.0	0.0	0.029	-0.006	
1.0	0.0	0.0	0.0	0.0	0.051	-0.013	
2.0	0.0	0.0	0.0	0.0	0.045	-0.026	
3.0	0.0	0.0	0.0	0.0	0.042	-0.038	
4.0	0.0	0.0	0.0	0.0	0.022	-0.029	
5.0	0.0	0.0	0.0	0.0	0.0	-0.026	
6.0	0.0	0.0	0.0	0.0	-0.016	-0.022	
7.0	0.0	0.0	0.0	0.0	-0.026	-0.026	
8.0	0.0	0.0	0.0	0.0	-0.026	-0.035	
9.0	0.0	0.0	0.0	0.0	-0.029	-0.048	
10.0	0.0	0.0	0.0	0.0	-0.035	-0.057	
11.0	0.0	0.0	0.0	0.0	-0.038	-0.035	
12.0	0.0	0.0	0.0	0.0	-0.042	-0.022	
13.0	0.0	0.0	0.0	0.0	-0.029	-0.026	
14.0	0.0	0.0	0.0	0.0	-0.038	0.01	
15.0	0.0	0.0	0.0	0.0	-0.029	0.029	
0.0	0.0	0.0	0.0	0.0	-0.01	0.029	
1.0	0.0	0.0	0.0	0.0	0.006	0.019	
2.0	0.0	0.0	0.0	0.0	0.022	0.0	
3.0	0.0	0.0	0.0	0.0	0.029	-0.013	
4.0	0.0	0.0	0.0	0.0	0.029	-0.016	
5.0	0.0	0.0	0.0	0.0	0.032	-0.022	
6.0	0.0	0.0	0.0	0.0	0.029	-0.026	
7.0	0.0	0.0	0.0	0.0	0.035	-0.038	
8.0	0.0	0.0	0.0	0.0	0.035	-0.032	
9.0	0.0	0.0	0.0	0.0	0.019	-0.006	
10.0	0.0	0.0	0.0	0.0	0.019	-0.003	
11.0	0.0	0.0	0.0	0.0	0.01	-0.006	
12.0	0.0	0.0	0.0	0.0	0.0	-0.026	
13.0	0.0	0.0	0.0	0.0	0.003	-0.051	
14.0	0.0	0.0	0.0	0.0	0.003	-0.061	
15.0	0.0	0.0	0.0	0.0	-0.003	-0.045	
0.0	0.0	0.0	0.0	0.0	-0.01	-0.029	
1.0	0.0	0.0	0.0	0.0	-0.01	-0.022	
2.0	0.0	0.0	0.0	0.0	-0.029	0.01	
3.0	0.0	0.0	0.0	0.0	-0.042	0.038	
4.0	0.0	0.0	0.0	0.0	-0.029	0.032	
5.0	0.0	0.0	0.0	0.0	-0.013	0.029	
6.0	0.0	0.0	0.0	0.0	-0.013	0.013	
7.0	0.0	0.0	0.0	0.0	0.003	-0.006	
8.0	0.0	0.0	0.0	0.0	0.01	-0.01	
9.0	0.0	0.0	0.0	0.0	0.019	-0.022	
10.0	0.0	0.0	0.0	0.0	0.022	-0.026	
11.0	0.0	0.0	0.0	0.0	0.016	-0.029	
12.0	0.0	0.0	0.0	0.0	0.013	-0.026	
13.0	0.0	0.0	0.0	0.0	0.003	-0.026	
14.0	0.0	0.0	0.0	0.0	-0.003	0.0	
15.0	0.0	0.0	0.0	0.0	0.006	-0.006	
0.0	0.0	0.0	0.0	0.0	0.003	-0.022	
1.0	0.0	0.0	0.0	0.0	0.01	-0.061	
2.0	0.0	0.0	0.0	0.0	-0.003	-0.048	
3.0	0.0	0.0	0.0	0.0	-0.01	-0.042	
4.0	0.0	0.0	0.0	0.0	-0.006	-0.026	
5.0	0.0	0.0	0.0	0.0	-0.006	-0.048	
6.0	0.0	0.0	0.0	0.0	-0.038	-0.022	
7.0	0.0	0.0	0.0	0.0	-0.042	0.019	
8.0	0.0	0.0	0.0	0.0	-0.026	0.026	
9.0	0.0	0.0	0.0	0.0	-0.013	0.026	
10.0	0.0	0.0	0.0	0.0	0.003	-0.003	
11.0	0.0	0.0	0.0	0.0	0.013	-0.022	
12.0	0.0	0.0	0.0	0.0	0.016	-0.016	
13.0	0.0	0.0	0.0	0.0	0.019	-0.003	
14.0	0.0	0.0	0.0	0.0	0.019	0.003	
15.0	0.0	0.0	0.0	0.0	0.01	-0.013	
0.0	0.0	0.0	0.0	0.0	0.006	-0.029	
1.0	0.0	0.0	0.0	0.0	0.003	-0.029	
2.0	0.0	0.0	0.0	0.0	0.0	-0.029	
3.0	0.0	0.0	0.0	0.0	-0.003	-0.038	
4.0	0.0	0.0	0.0	0.0	-0.003	-0.042	
5.0	0.0	0.0	0.0	0.0	0.019	-0.054	
6.0	0.0	0.0	0.0	0.0	-0.003	-0.051	
7.0	0.0	0.0	0.0	0.0	-0.006	-0.035	
8.0	0.0	0.0	0.0	0.0	-0.01	-0.016	
9.0	0.0	0.0	0.0	0.0	-0.003	-0.016	
10.0	0.0	0.0	0.0	0.0	-0.038	0.006	
11.0	0.0	0.0	0.0	0.0	-0.038	0.035	
12.0	0.0	0.0	0.0	0.0	-0.022	0.029	
13.0	0.0	0.0	0.0	0.0	-0.01	0.019	
14.0	0.0	0.0	0.0	0.0	0.0	0.003	
15.0	0.0	0.0	0.0	0.0	0.013	-0.016	
0.0	0.0	0.0	0.0	0.0	0.013	-0.029	
1.0	0.0	0.0	0.0	0.0	0.029	-0.016	
2.0	0.0	0.0	0.0	0.0	0.022	-0.013	
3.0	0.0	0.0	0.0	0.0	0.022	-0.026	
4.0	0.0	0.0	0.0	0.0	0.019	-0.013	
5.0	0.0	0.0	0.0	0.0	0.019	0.003	
6.0	0.0	0.0	0.0	0.0	0.0	0.003	
7.0	0.0	0.0	0.0	0.0	-0.016	-0.013	
8.0	0.0	0.0	0.0	0.0	-0.006	-0.026	
9.0	0.0	0.0	0.0	0.0	0.01	-0.042	
10.0	0.0	0.0	0.0	0.0	0.0	-0.051	
11.0	0.0	0.0	0.0	0.0	-0.006	-0.045	
12.0	0.0	0.0	0.0	0.0	0.0	-0.032	
13.0	0.0	0.0	0.0	0.0	-0.003	-0.026	
14.0	0.0	0.0	0.0	0.0	-0.035	0.013	
15.0	0.0	0.0	0.0	0.0	-0.045	0.045	
0.0	0.0	0.0	0.0	0.0	-0.029	0.035	
1.0	0.0	0.0	0.0	0.0	-0.016	0.022	
2.0	0.0	0.0	0.0	0.0	-0.006	0.003	
3.0	0.0	0.0	0.0	0.0	0.01	-0.016	
4.0	0.0	0.0	0.0	0.0	0.016	-0.022	
5.0	0.0	0.0	0.0	0.0	0.022	-0.019	
6.0	0.0	0.0	0.0	0.0	0.01	-0.032	
7.0	0.0	0.0	0.0	0.0	0.003	-0.038	
8.0	0.0	0.0	0.0	0.0	0.013	-0.029	
9.0	0.0	0.0	0.0	0.0	0.006	-0.026	
10.0	0.0	0.0	0.0	0.0	0.01	-0.026	
11.0	0.0	0.0	0.0	0.0	0.013	-0.019	
12.0	0.0	0.0	0.0	0.0	0.016	-0.032	
13.0	0.0	0.0	0.0	0.0	0.016	-0.054	
14.0	0.0	0.0	0.0	0.0	0.016	-0.048	
15.0	0.0	0.0	0.0	0.0	0.0	-0.026	
0.0	0.0	0.0	0.0	0.0	-0.003	-0.013	
1.0	0.0	0.0	0.0	0.0	-0.003	-0.013	
2.0	0.0	0.0	0.0	0.0	-0.029	0.019	
3.0	0.0	0.0	0.0	0.0	-0.048	0.048	
4.0	0.0	0.0	0.0	0.0	-0.035	0.035	
5.0	0.0	0.0	0.0	0.0	-0.016	0.01	
6.0	0.0	0.0	0.0	0.0	0.0	0.0	
7.0	0.0	0.0	0.0	0.0	0.003	-0.013	
8.0	0.0	0.0	0.0	0.0	0.013	-0.019	
9.0	0.0	0.0	0.0	0.0	0.013	-0.022	
10.0	0.0	0.0	0.0	0.0	0.013	-0.032	
11.0	0.0	0.0	0.0	0.0	0.006	-0.038	
12.0	0.0	0.0	0.0	0.0	0.01	-0.035	
13.0	0.0	0.0	0.0	0.0	0.01	-0.026	
14.0	0.0	0.0	0.0	0.0	0.003	-0.042	
15.0	0.0	0.0	0.0	0.0	0.003	-0.032	
0.0	0.0	0.0	0.0	0.0	0.013	-0.038	
1.0	0.0	0.0	0.0	0.0	0.035	-0.051	
2.0	0.0	0.0	0.0	0.0	0.042	-0.051	
3.0	0.0	0.0	0.0	0.0	0.022	-0.032	
4.0	0.0	0.0	0.0	0.0	0.006	-0.016	
5.0	0.0	0.0	0.0	0.0	-0.003	-0.013	
6.0	0.0	0.0	0.0	0.0	-0.048	0.029	
7.0	0.0	0.0	0.0	0.0	-0.07	0.057	
8.0	0.0	0.0	0.0	0.0	-0.051	0.038	
9.0	0.0	0.0	0.0	0.0	-0.042	0.016	
10.0	0.0	0.0	0.0	0.0	-0.029	0.003	
11.0	0.0	0.0	0.0	0.0	0.006	-0.006	
12.0	0.0	0.0	0.0	0.0	0.01	-0.01	
13.0	0.0	0.0	0.0	0.0	0.01	-0.013	
14.0	0.0	0.0	0.0	0.0	0.035	-0.013	
15.0	0.0	0.0	0.0	0.0	0.026	-0.038	
0.0	0.0	0.0	0.0	0.0	0.016	-0.032	
1.0	0.0	0.0	0.0	0.0	0.01	-0.032	
2.0	0.0	0.0	0.0	0.0	0.013	-0.035	
3.0	0.0	0.0	0.0	0.0	0.006	-0.038	
4.0	0.0	0.0	0.0	0.0	-0.013	-0.029	
5.0	0.0	0.0	0.0	0.0	-0.016	-0.054	
6.0	0.0	0.0	0.0	0.0	-0.019	-0.051	
7.0	0.0	0.0	0.0	0.0	-0.022	-0.042	
8.0	0.0	0.0	0.0	0.0	-0.042	-0.026	
9.0	0.0	0.0	0.0	0.0	-0.016	-0.022	
10.0	0.0	0.0	0.0	0.0	-0.019	0.01	
11.0	0.0	0.0	0.0	0.0	-0.01	0.045	
12.0	0.0	0.0	0.0	0.0	-0.003	0.051	
13.0	0.0	0.0	0.0	0.0	0.006	0.051	
14.0	0.0	0.0	0.0	0.0	0.003	0.019	
15.0	0.0	0.0	0.0	0.0	0.0	-0.006	
0.0	0.0	0.0	0.0	0.0	0.0	-0.003	
1.0	0.0	0.0	0.0	0.0	-0.003	-0.01	
2.0	0.0	0.0	0.0	0.0	-0.019	-0.019	
3.0	0.0	0.0	0.0	0.0	-0.006	-0.032	
4.0	0.0	0.0	0.0	0.0	-0.003	-0.051	
5.0	0.0	0.0	0.0	0.0	-0.016	-0.042	
6.0	0.0	0.0	0.0	0.0	-0.022	-0.035	
7.0	0.0	0.0	0.0	0.0	-0.013	-0.042	
8.0	0.0	0.0	0.0	0.0	0.013	-0.038	
9.0	0.0	0.0	0.0	0.0	0.032	-0.064	
10.0	0.0	0.0	0.0	0.0	0.016	-0.057	
11.0	0.0	0.0	0.0	0.0	0.016	-0.032	
12.0	0.0	0.0	0.0	0.0	0.01	-0.013	
13.0	0.0	0.0	0.0	0.0	0.013	-0.013	
14.0	0.0	0.0	0.0	0.0	-0.003	0.016	
15.0	0.0	0.0	0.0	0.0	0.013	0.051	
0.0	0.0	0.0	0.0	0.0	0.032	0.048	
1.0	0.0	0.0	0.0	0.0	0.029	0.019	
2.0	0.0	0.0	0.0	0.0	0.029	0.006	
3.0	0.0	0.0	0.0	0.0	0.016	-0.003	
4.0	0.0	0.0	0.0	0.0	-0.006	-0.013	
5.0	0.0	0.0	0.0	0.0	-0.006	-0.01	
6.0	0.0	0.0	0.0	0.0	-0.01	-0.003	
7.0	0.0	0.0	0.0	0.0	-0.013	-0.016	
8.0	0.0	0.0	0.0	0.0	-0.006	-0.026	
9.0	0.0	0.0	0.0	0.0	-0.022	-0.019	
10.0	0.0	0.0	0.0	0.0	-0.013	-0.029	
11.0	0.0	0.0	0.0	0.0	-0.016	-0.035	
12.0	0.0	0.0	0.0	0.0	-0.006	-0.048	
13.0	0.0	0.0	0.0	0.0	0.013	-0.064	
14.0	0.0	0.0	0.0	0.0	0.0	-0.07	
15.0	0.0	0.0	0.0	0.0	-0.006	-0.048	
0.0	0.0	0.0	0.0	0.0	-0.013	-0.016	
1.0	0.0	0.0	0.0	0.0	-0.013	-0.019	
2.0	0.0	0.0	0.0	0.0	-0.013	0.013	
3.0	0.0	0.0	0.0	0.0	-0.006	0.048	
4.0	0.0	0.0	0.0	0.0	0.029	0.057	
5.0	0.0	0.0	0.0	0.0	0.029	0.045	
6.0	0.0	0.0	0.0	0.0	0.019	0.013	
7.0	0.0	0.0	0.0	0.0	0.01	-0.003	
8.0	0.0	0.0	0.0	0.0	0.0	-0.016	
9.0	0.0	0.0	0.0	0.0	-0.003	-0.019	
10.0	0.0	0.0	0.0	0.0	0.0	-0.038	
11.0	0.0	0.0	0.0	0.0	-0.006	-0.038	
12.0	0.0	0.0	0.0	0.0	0.003	-0.029	
13.0	0.0	0.0	0.0	0.0	0.01	-0.022	
14.0	0.0	0.0	0.0	0.0	-0.003	-0.022	
15.0	0.0	0.0	0.0	0.0	-0.013	-0.026	
0.0	0.0	0.0	0.0	0.0	-0.003	-0.032	
1.0	0.0	0.0	0.0	0.0	0.006	-0.064	
2.0	0.0	0.0	0.0	0.0	-0.003	-0.067	
3.0	0.0	0.0	0.0	0.0	-0.013	-0.051	
4.0	0.0	0.0	0.0	0.0	-0.016	-0.038	
5.0	0.0	0.0	0.0	0.0	-0.01	-0.038	
6.0	0.0	0.0	0.0	0.0	-0.038	0.003	
7.0	0.0	0.0	0.0	0.0	-0.035	0.022	
8.0	0.0	0.0	0.0	0.0	-0.016	0.01	
9.0	0.0	0.0	0.0	0.0	-0.01	0.0	
10.0	0.0	0.0	0.0	0.0	0.003	-0.064	
11.0	0.0	0.0	0.0	0.0	0.013	-0.064	
12.0	0.0	0.0	0.0	0.0	0.022	-0.006	
13.0	0.0	0.0	0.0	0.0	0.032	0.089	
14.0	0.0	0.0	0.0	0.0	0.026	0.067	
15.0	0.0	0.0	0.0	0.0	0.019	0.006	
0.0	0.0	0.0	0.0	0.0	0.019	-0.045	
1.0	0.0	0.0	0.0	0.0	0.01	0.045	
2.0	0.0	0.0	0.0	0.0	-0.003	0.144	
3.0	0.0	0.0	0.0	0.0	0.0	0.019	
4.0	0.0	0.0	0.0	0.0	0.013	-0.045	
5.0	0.0	0.0	0.0	0.0	0.019	-0.096	
6.0	0.0	0.0	0.0	0.0	-0.003	-0.15	
7.0	0.0	0.0	0.0	0.0	-0.016	-0.121	
8.0	0.0	0.0	0.0	0.0	-0.019	-0.112	
9.0	0.0	0.0	0.0	0.0	-0.022	-0.157	
10.0	0.0	0.0	0.0	0.0	-0.051	-0.163	
11.0	0.0	0.0	0.0	0.0	-0.051	-0.022	
12.0	0.0	0.0	0.0	0.0	-0.032	0.067	
13.0	0.0	0.0	0.0	0.0	-0.013	0.259	
14.0	0.0	0.0	0.0	0.0	0.0	0.383	
15.0	0.0	0.0	0.0	0.0	0.016	0.192	
0.0	0.0	0.0	0.0	0.0	0.032	-0.067	
1.0	0.0	0.0	0.0	0.0	0.042	-0.131	
2.0	0.0	0.0	0.0	0.0	0.035	-0.093	
3.0	0.0	0.0	0.0	0.0	0.016	-0.051	
4.0	0.0	0.0	0.0	0.0	0.013	-0.045	
5.0	0.0	0.0	0.0	0.0	0.019	-0.064	
6.0	0.0	0.0	0.0	0.0	0.003	-0.026	
7.0	0.0	0.0	0.0	0.0	0.003	-0.026	
8.0	0.0	0.0	0.0	0.0	0.006	-0.054	
9.0	0.0	0.0	0.0	0.0	0.013	-0.096	
10.0	0.0	0.0	0.0	0.0	-0.01	-0.08	
11.0	0.0	0.0	0.0	0.0	-0.01	-0.042	
12.0	0.0	0.0	0.0	0.0	-0.013	0.003	
13.0	0.0	0.0	0.0	0.0	-0.01	0.003	
14.0	0.0	0.0	0.0	0.0	-0.029	0.016	
15.0	0.0	0.0	0.0	0.0	-0.048	0.006	
0.0	0.0	0.0	0.0	0.0	-0.045	0.016	
1.0	0.0	0.0	0.0	0.0	-0.029	-0.029	
2.0	0.0	0.0	0.0	0.0	-0.019	-0.099	
3.0	0.0	0.0	0.0	0.0	-0.003	-0.048	
4.0	0.0	0.0	0.0	0.0	0.003	-0.067	
5.0	0.0	0.0	0.0	0.0	0.026	-0.105	
6.0	0.0	0.0	0.0	0.0	0.032	-0.022	
7.0	0.0	0.0	0.0	0.0	0.026	-0.089	
8.0	0.0	0.0	0.0	0.0	0.022	-0.125	
9.0	0.0	0.0	0.0	0.0	0.013	0.08	
10.0	0.0	0.0	0.0	0.0	-0.006	0.099	
11.0	0.0	0.0	0.0	0.0	-0.006	0.086	
12.0	0.0	0.0	0.0	0.0	0.003	0.176	
13.0	0.0	0.0	0.0	0.0	0.01	0.109	
14.0	0.0	0.0	0.0	0.0	0.013	-0.073	
15.0	0.0	0.0	0.0	0.0	-0.01	-0.294	
0.0	0.0	0.0	0.0	0.0	-0.019	-0.355	
1.0	0.0	0.0	0.0	0.0	-0.019	-0.236	
2.0	0.0	0.0	0.0	0.0	-0.048	0.032	
3.0	0.0	0.0	0.0	0.0	-0.045	0.217	
4.0	0.0	0.0	0.0	0.0	-0.026	0.048	
5.0	0.0	0.0	0.0	0.0	0.013	-0.109	
6.0	0.0	0.0	0.0	0.0	0.026	-0.038	
7.0	0.0	0.0	0.0	0.0	0.038	-0.118	
8.0	0.0	0.0	0.0	0.0	0.019	-0.032	
9.0	0.0	0.0	0.0	0.0	-0.006	0.307	
10.0	0.0	0.0	0.0	0.0	0.01	0.163	
11.0	0.0	0.0	0.0	0.0	0.035	0.303	
12.0	0.0	0.0	0.0	0.0	0.035	0.15	
13.0	0.0	0.0	0.0	0.0	0.045	-0.048	
14.0	0.0	0.0	0.0	0.0	0.013	0.195	
15.0	0.0	0.0	0.0	0.0	-0.003	0.15	
0.0	0.0	0.0	0.0	0.0	-0.006	-0.086	
1.0	0.0	0.0	0.0	0.0	0.01	-0.141	
2.0	0.0	0.0	0.0	0.0	-0.006	-0.141	
3.0	0.0	0.0	0.0	0.0	-0.01	-0.112	
4.0	0.0	0.0	0.0	0.0	-0.022	-0.048	
5.0	0.0	0.0	0.0	0.0	-0.013	-0.051	
6.0	0.0	0.0	0.0	0.0	-0.048	-0.029	
7.0	0.0	0.0	0.0	0.0	-0.054	-0.003	
8.0	0.0	0.0	0.0	0.0	-0.035	0.224	
9.0	0.0	0.0	0.0	0.0	-0.026	-0.067	
10.0	0.0	0.0	0.0	0.0	-0.022	-0.3	
11.0	0.0	0.0	0.0	0.0	0.006	-0.208	
12.0	0.0	0.0	0.0	0.0	0.019	-0.15	
13.0	0.0	0.0	0.0	0.0	0.032	-0.383	
14.0	0.0	0.0	0.0	0.0	0.029	-0.07	
15.0	0.0	0.0	0.0	0.0	0.019	0.144	
0.0	0.0	0.0	0.0	0.0	0.01	0.533	
1.0	0.0	0.0	0.0	0.0	0.016	0.345	
2.0	0.0	0.0	0.0	0.0	0.01	-0.07	
3.0	0.0	0.0	0.0	0.0	0.01	-0.217	
4.0	0.0	0.0	0.0	0.0	0.006	-0.15	
5.0	0.0	0.0	0.0	0.0	0.01	-0.08	
6.0	0.0	0.0	0.0	0.0	-0.016	0.054	
7.0	0.0	0.0	0.0	0.0	-0.016	0.048	
8.0	0.0	0.0	0.0	0.0	0.0	0.0	
9.0	0.0	0.0	0.0	0.0	-0.003	-0.016	
10.0	0.0	0.0	0.0	0.0	-0.022	-0.067	
11.0	0.0	0.0	0.0	0.0	-0.032	-0.109	
12.0	0.0	0.0	0.0	0.0	-0.032	0.073	
13.0	0.0	0.0	0.0	0.0	-0.016	0.121	
14.0	0.0	0.0	0.0	0.0	-0.01	-0.016	
15.0	0.0	0.0	0.0	0.0	0.006	-0.051	
0.0	0.0	0.0	0.0	0.0	0.006	-0.105	
1.0	0.0	0.0	0.0	0.0	0.006	-0.201	
2.0	0.0	0.0	0.0	0.0	0.016	-0.048	
3.0	0.0	0.0	0.0	0.0	0.013	0.016	
4.0	0.0	0.0	0.0	0.0	0.003	0.038	
5.0	0.0	0.0	0.0	0.0	0.01	-0.029	
6.0	0.0	0.0	0.0	0.0	0.0	0.016	
7.0	0.0	0.0	0.0	0.0	0.006	-0.153	
8.0	0.0	0.0	0.0	0.0	0.01	-0.099	
9.0	0.0	0.0	0.0	0.0	0.022	0.262	
10.0	0.0	0.0	0.0	0.0	-0.003	0.246	
11.0	0.0	0.0	0.0	0.0	0.0	0.016	
12.0	0.0	0.0	0.0	0.0	0.003	-0.013	
13.0	0.0	0.0	0.0	0.0	-0.003	-0.102	
14.0	0.0	0.0	0.0	0.0	-0.035	-0.093	
15.0	0.0	0.0	0.0	0.0	-0.045	-0.105	
0.0	0.0	0.0	0.0	0.0	-0.013	-0.026	
1.0	0.0	0.0	0.0	0.0	-0.013	-0.105	
2.0	0.0	0.0	0.0	0.0	0.0	-0.185	
3.0	0.0	0.0	0.0	0.0	0.003	-0.278	
4.0	0.0	0.0	0.0	0.0	0.013	-0.141	
5.0	0.0	0.0	0.0	0.0	0.01	0.054	
6.0	0.0	0.0	0.0	0.0	0.016	0.01	
7.0	0.0	0.0	0.0	0.0	0.013	0.521	
8.0	0.0	0.0	0.0	0.0	0.016	0.361	
9.0	0.0	0.0	0.0	0.0	0.013	0.147	
10.0	0.0	0.0	0.0	0.0	0.016	0.01	
11.0	0.0	0.0	0.0	0.0	0.0	-0.102	
12.0	0.0	0.0	0.0	0.0	-0.01	-0.482	
13.0	0.0	0.0	0.0	0.0	-0.01	-0.508	
14.0	0.0	0.0	0.0	0.0	-0.016	0.003	
15.0	0.0	0.0	0.0	0.0	0.003	0.07	
0.0	0.0	0.0	0.0	0.0	0.019	0.083	
1.0	0.0	0.0	0.0	0.0	0.01	0.192	
2.0	0.0	0.0	0.0	0.0	-0.026	0.227	
3.0	0.0	0.0	0.0	0.0	-0.029	0.026	
4.0	0.0	0.0	0.0	0.0	-0.013	-0.128	
5.0	0.0	0.0	0.0	0.0	-0.01	-0.093	
6.0	0.0	0.0	0.0	0.0	-0.006	-0.096	
7.0	0.0	0.0	0.0	0.0	0.01	-0.099	
8.0	0.0	0.0	0.0	0.0	0.013	-0.089	
9.0	0.0	0.0	0.0	0.0	0.019	0.201	
10.0	0.0	0.0	0.0	0.0	0.019	0.201	
11.0	0.0	0.0	0.0	0.0	0.016	0.016	
12.0	0.0	0.0	0.0	0.0	0.013	-0.093	
13.0	0.0	0.0	0.0	0.0	0.006	-0.08	
14.0	0.0	0.0	0.0	0.0	0.0	-0.099	
15.0	0.0	0.0	0.0	0.0	-0.006	-0.057	
0.0	0.0	0.0	0.0	0.0	-0.006	0.048	
1.0	0.0	0.0	0.0	0.0	0.01	0.083	
2.0	0.0	0.0	0.0	0.0	0.006	-0.077	
3.0	0.0	0.0	0.0	0.0	-0.013	-0.093	
4.0	0.0	0.0	0.0	0.0	-0.01	-0.022	
5.0	0.0	0.0	0.0	0.0	-0.016	-0.022	
6.0	0.0	0.0	0.0	0.0	-0.038	-0.064	
7.0	0.0	0.0	0.0	0.0	-0.048	0.022	
8.0	0.0	0.0	0.0	0.0	-0.016	0.061	
9.0	0.0	0.0	0.0	0.0	0.003	0.08	
10.0	0.0	0.0	0.0	0.0	0.006	0.048	
11.0	0.0	0.0	0.0	0.0	0.006	0.006	
12.0	0.0	0.0	0.0	0.0	0.006	-0.006	
13.0	0.0	0.0	0.0	0.0	0.01	0.0	
14.0	0.0	0.0	0.0	0.0	0.013	-0.026	
15.0	0.0	0.0	0.0	0.0	0.01	-0.064	
0.0	0.0	0.0	0.0	0.0	0.0	-0.042	
1.0	0.0	0.0	0.0	0.0	0.01	-0.038	
2.0	0.0	0.0	0.0	0.0	0.003	-0.064	
3.0	0.0	0.0	0.0	0.0	0.006	-0.045	
4.0	0.0	0.0	0.0	0.0	0.006	-0.026	
5.0	0.0	0.0	0.0	0.0	0.013	-0.064	
6.0	0.0	0.0	0.0	0.0	0.0	-0.035	
7.0	0.0	0.0	0.0	0.0	-0.006	-0.01	
8.0	0.0	0.0	0.0	0.0	-0.01	0.01	
9.0	0.0	0.0	0.0	0.0	-0.01	-0.003	
10.0	0.0	0.0	0.0	0.0	-0.038	0.035	
11.0	0.0	0.0	0.0	0.0	-0.035	0.042	
12.0	0.0	0.0	0.0	0.0	-0.01	-0.01	
13.0	0.0	0.0	0.0	0.0	-0.01	0.035	
14.0	0.0	0.0	0.0	0.0	-0.006	-0.026	
15.0	0.0	0.0	0.0	0.0	0.003	-0.141	
0.0	0.0	0.0	0.0	0.0	-0.003	-0.042	
1.0	0.0	0.0	0.0	0.0	0.013	-0.08	
2.0	0.0	0.0	0.0	0.0	0.013	-0.054	
3.0	0.0	0.0	0.0	0.0	0.029	0.048	
4.0	0.0	0.0	0.0	0.0	0.032	-0.029	
5.0	0.0	0.0	0.0	0.0	0.006	0.067	
6.0	0.0	0.0	0.0	0.0	0.0	0.157	
7.0	0.0	0.0	0.0	0.0	0.003	0.016	
8.0	0.0	0.0	0.0	0.0	0.013	-0.147	
9.0	0.0	0.0	0.0	0.0	0.016	-0.141	
10.0	0.0	0.0	0.0	0.0	0.003	-0.16	
11.0	0.0	0.0	0.0	0.0	-0.01	-0.035	
12.0	0.0	0.0	0.0	0.0	-0.006	0.045	
13.0	0.0	0.0	0.0	0.0	-0.016	0.067	
14.0	0.0	0.0	0.0	0.0	-0.051	0.15	
15.0	0.0	0.0	0.0	0.0	-0.045	-0.077	
0.0	0.0	0.0	0.0	0.0	-0.038	-0.195	
1.0	0.0	0.0	0.0	0.0	-0.016	-0.115	
2.0	0.0	0.0	0.0	0.0	-0.003	0.048	
3.0	0.0	0.0	0.0	0.0	0.003	0.275	
4.0	0.0	0.0	0.0	0.0	0.029	-0.07	
5.0	0.0	0.0	0.0	0.0	0.045	-0.358	
6.0	0.0	0.0	0.0	0.0	0.042	0.121	
7.0	0.0	0.0	0.0	0.0	0.022	0.22	
8.0	0.0	0.0	0.0	0.0	0.019	0.141	
9.0	0.0	0.0	0.0	0.0	0.019	-0.057	
10.0	0.0	0.0	0.0	0.0	0.006	-0.042	
11.0	0.0	0.0	0.0	0.0	-0.01	-0.083	
12.0	0.0	0.0	0.0	0.0	-0.003	-0.16	
13.0	0.0	0.0	0.0	0.0	0.0	-0.128	
14.0	0.0	0.0	0.0	0.0	-0.013	-0.064	
15.0	0.0	0.0	0.0	0.0	-0.013	-0.102	
0.0	0.0	0.0	0.0	0.0	-0.022	-0.102	
1.0	0.0	0.0	0.0	0.0	-0.022	0.054	
2.0	0.0	0.0	0.0	0.0	-0.042	0.064	
3.0	0.0	0.0	0.0	0.0	-0.042	-0.038	
4.0	0.0	0.0	0.0	0.0	-0.013	0.006	
5.0	0.0	0.0	0.0	0.0	-0.003	0.128	
6.0	0.0	0.0	0.0	0.0	0.006	0.233	
7.0	0.0	0.0	0.0	0.0	0.019	0.08	
8.0	0.0	0.0	0.0	0.0	0.026	-0.089	
9.0	0.0	0.0	0.0	0.0	0.026	0.048	
10.0	0.0	0.0	0.0	0.0	0.022	-0.029	
11.0	0.0	0.0	0.0	0.0	0.006	-0.029	
12.0	0.0	0.0	0.0	0.0	-0.003	0.118	
13.0	0.0	0.0	0.0	0.0	0.01	-0.035	
14.0	0.0	0.0	0.0	0.0	0.006	-0.192	
15.0	0.0	0.0	0.0	0.0	0.0	-0.236	
0.0	0.0	0.0	0.0	0.0	0.0	0.035	
1.0	0.0	0.0	0.0	0.0	0.006	0.144	
2.0	0.0	0.0	0.0	0.0	-0.006	0.029	
3.0	0.0	0.0	0.0	0.0	-0.013	-0.051	
4.0	0.0	0.0	0.0	0.0	-0.003	-0.137	
5.0	0.0	0.0	0.0	0.0	0.0	-0.051	
6.0	0.0	0.0	0.0	0.0	-0.026	0.029	
7.0	0.0	0.0	0.0	0.0	-0.035	0.048	
8.0	0.0	0.0	0.0	0.0	-0.013	0.029	
9.0	0.0	0.0	0.0	0.0	-0.01	0.035	
10.0	0.0	0.0	0.0	0.0	0.003	-0.01	
11.0	0.0	0.0	0.0	0.0	0.003	0.0	
12.0	0.0	0.0	0.0	0.0	0.01	-0.013	
13.0	0.0	0.0	0.0	0.0	0.016	0.0	
14.0	0.0	0.0	0.0	0.0	0.016	0.026	
15.0	0.0	0.0	0.0	0.0	0.006	-0.022	
0.0	0.0	0.0	0.0	0.0	-0.003	-0.032	
1.0	0.0	0.0	0.0	0.0	0.003	-0.019	
2.0	0.0	0.0	0.0	0.0	-0.003	-0.23	
3.0	0.0	0.0	0.0	0.0	-0.006	-0.019	
4.0	0.0	0.0	0.0	0.0	0.003	0.035	
5.0	0.0	0.0	0.0	0.0	0.013	-0.042	
6.0	0.0	0.0	0.0	0.0	-0.003	-0.064	
7.0	0.0	0.0	0.0	0.0	-0.013	-0.061	
8.0	0.0	0.0	0.0	0.0	-0.013	-0.249	
9.0	0.0	0.0	0.0	0.0	-0.003	0.109	
10.0	0.0	0.0	0.0	0.0	-0.029	0.217	
11.0	0.0	0.0	0.0	0.0	-0.026	0.089	
12.0	0.0	0.0	0.0	0.0	-0.013	-0.099	
13.0	0.0	0.0	0.0	0.0	-0.006	-0.057	
14.0	0.0	0.0	0.0	0.0	0.01	-0.051	
15.0	0.0	0.0	0.0	0.0	0.016	0.022	
0.0	0.0	0.0	0.0	0.0	0.01	-0.054	
1.0	0.0	0.0	0.0	0.0	0.016	-0.073	
2.0	0.0	0.0	0.0	0.0	0.022	-0.048	
3.0	0.0	0.0	0.0	0.0	0.029	-0.115	
4.0	0.0	0.0	0.0	0.0	0.016	0.019	
5.0	0.0	0.0	0.0	0.0	0.013	-0.029	
6.0	0.0	0.0	0.0	0.0	0.003	-0.31	
7.0	0.0	0.0	0.0	0.0	0.006	-0.217	
8.0	0.0	0.0	0.0	0.0	-0.003	0.438	
9.0	0.0	0.0	0.0	0.0	-0.01	0.447	
10.0	0.0	0.0	0.0	0.0	-0.019	0.093	
11.0	0.0	0.0	0.0	0.0	-0.013	-0.054	
12.0	0.0	0.0	0.0	0.0	-0.006	0.038	
13.0	0.0	0.0	0.0	0.0	-0.003	-0.013	
14.0	0.0	0.0	0.0	0.0	-0.029	-0.067	
15.0	0.0	0.0	0.0	0.0	-0.026	-0.045	
0.0	0.0	0.0	0.0	0.0	-0.013	-0.022	
1.0	0.0	0.0	0.0	0.0	-0.006	-0.013	
2.0	0.0	0.0	0.0	0.0	0.0	-0.022	
3.0	0.0	0.0	0.0	0.0	0.006	-0.026	
4.0	0.0	0.0	0.0	0.0	0.01	-0.006	
5.0	0.0	0.0	0.0	0.0	0.016	0.003	
6.0	0.0	0.0	0.0	0.0	0.006	-0.038	
7.0	0.0	0.0	0.0	0.0	0.003	-0.179	
8.0	0.0	0.0	0.0	0.0	0.0	-0.332	
9.0	0.0	0.0	0.0	0.0	0.01	-0.399	
10.0	0.0	0.0	0.0	0.0	0.0	-0.185	
11.0	0.0	0.0	0.0	0.0	-0.006	-0.026	
12.0	0.0	0.0	0.0	0.0	-0.003	0.709	
13.0	0.0	0.0	0.0	0.0	0.003	0.524	
14.0	0.0	0.0	0.0	0.0	-0.003	0.099	
15.0	0.0	0.0	0.0	0.0	0.01	-0.23	
0.0	0.0	0.0	0.0	0.0	0.01	-0.198	
1.0	0.0	0.0	0.0	0.0	-0.006	-0.128	
2.0	0.0	0.0	0.0	0.0	-0.032	0.0	
3.0	0.0	0.0	0.0	0.0	-0.032	0.022	
4.0	0.0	0.0	0.0	0.0	-0.019	0.029	
5.0	0.0	0.0	0.0	0.0	-0.003	0.016	
6.0	0.0	0.0	0.0	0.0	0.0	-0.01	
7.0	0.0	0.0	0.0	0.0	0.01	-0.026	
8.0	0.0	0.0	0.0	0.0	0.016	-0.032	
9.0	0.0	0.0	0.0	0.0	0.019	-0.016	
10.0	0.0	0.0	0.0	0.0	0.013	-0.019	
11.0	0.0	0.0	0.0	0.0	0.01	-0.042	
12.0	0.0	0.0	0.0	0.0	0.01	-0.038	
13.0	0.0	0.0	0.0	0.0	0.003	-0.022	
14.0	0.0	0.0	0.0	0.0	-0.006	-0.048	
15.0	0.0	0.0	0.0	0.0	-0.006	-0.08	
0.0	0.0	0.0	0.0	0.0	0.0	-0.115	
1.0	0.0	0.0	0.0	0.0	0.003	-0.099	
2.0	0.0	0.0	0.0	0.0	0.0	-0.099	
3.0	0.0	0.0	0.0	0.0	0.022	0.172	
4.0	0.0	0.0	0.0	0.0	-0.003	0.141	
5.0	0.0	0.0	0.0	0.0	-0.013	-0.089	
6.0	0.0	0.0	0.0	0.0	-0.035	-0.153	
7.0	0.0	0.0	0.0	0.0	-0.035	0.016	
8.0	0.0	0.0	0.0	0.0	-0.016	0.051	
9.0	0.0	0.0	0.0	0.0	0.006	-0.026	
10.0	0.0	0.0	0.0	0.0	0.022	0.016	
11.0	0.0	0.0	0.0	0.0	0.006	0.045	
12.0	0.0	0.0	0.0	0.0	0.01	-0.093	
13.0	0.0	0.0	0.0	0.0	0.013	0.125	
14.0	0.0	0.0	0.0	0.0	0.019	0.172	
15.0	0.0	0.0	0.0	0.0	0.006	0.038	
0.0	0.0	0.0	0.0	0.0	0.0	-0.026	
1.0	0.0	0.0	0.0	0.0	0.01	-0.176	
2.0	0.0	0.0	0.0	0.0	0.0	-0.134	
3.0	0.0	0.0	0.0	0.0	-0.01	-0.157	
4.0	0.0	0.0	0.0	0.0	-0.013	0.131	
5.0	0.0	0.0	0.0	0.0	0.01	0.019	
6.0	0.0	0.0	0.0	0.0	0.01	-0.08	
7.0	0.0	0.0	0.0	0.0	-0.01	-0.23	
8.0	0.0	0.0	0.0	0.0	-0.019	-0.195	
9.0	0.0	0.0	0.0	0.0	-0.026	0.118	
10.0	0.0	0.0	0.0	0.0	-0.035	0.128	
11.0	0.0	0.0	0.0	0.0	-0.035	-0.195	
12.0	0.0	0.0	0.0	0.0	-0.013	-0.243	
13.0	0.0	0.0	0.0	0.0	0.003	-0.057	
14.0	0.0	0.0	0.0	0.0	0.01	0.141	
15.0	0.0	0.0	0.0	0.0	0.016	0.543	
0.0	0.0	0.0	0.0	0.0	0.013	0.383	
1.0	0.0	0.0	0.0	0.0	0.035	-0.125	
2.0	0.0	0.0	0.0	0.0	0.029	-0.144	
3.0	0.0	0.0	0.0	0.0	0.026	-0.064	
4.0	0.0	0.0	0.0	0.0	0.016	-0.035	
5.0	0.0	0.0	0.0	0.0	0.006	-0.013	
6.0	0.0	0.0	0.0	0.0	0.0	-0.038	
7.0	0.0	0.0	0.0	0.0	-0.013	-0.102	
8.0	0.0	0.0	0.0	0.0	-0.013	-0.099	
9.0	0.0	0.0	0.0	0.0	0.0	-0.176	
10.0	0.0	0.0	0.0	0.0	-0.006	-0.16	
11.0	0.0	0.0	0.0	0.0	-0.003	0.035	
12.0	0.0	0.0	0.0	0.0	-0.003	0.217	
13.0	0.0	0.0	0.0	0.0	-0.003	-0.032	
14.0	0.0	0.0	0.0	0.0	-0.032	-0.038	
15.0	0.0	0.0	0.0	0.0	-0.038	0.188	
0.0	0.0	0.0	0.0	0.0	-0.013	0.019	
1.0	0.0	0.0	0.0	0.0	-0.006	0.0	
2.0	0.0	0.0	0.0	0.0	0.003	-0.016	
3.0	0.0	0.0	0.0	0.0	0.013	-0.064	
4.0	0.0	0.0	0.0	0.0	0.01	-0.093	
5.0	0.0	0.0	0.0	0.0	0.016	-0.057	
6.0	0.0	0.0	0.0	0.0	0.003	-0.048	
7.0	0.0	0.0	0.0	0.0	-0.003	0.128	
8.0	0.0	0.0	0.0	0.0	0.013	0.112	
9.0	0.0	0.0	0.0	0.0	0.022	-0.083	
10.0	0.0	0.0	0.0	0.0	0.026	-0.064	
11.0	0.0	0.0	0.0	0.0	0.003	-0.054	
12.0	0.0	0.0	0.0	0.0	-0.006	-0.268	
13.0	0.0	0.0	0.0	0.0	-0.003	-0.045	
14.0	0.0	0.0	0.0	0.0	-0.006	0.147	
15.0	0.0	0.0	0.0	0.0	-0.003	-0.089	
0.0	0.0	0.0	0.0	0.0	-0.01	-0.246	
1.0	0.0	0.0	0.0	0.0	-0.016	-0.067	
2.0	0.0	0.0	0.0	0.0	-0.032	0.042	
3.0	0.0	0.0	0.0	0.0	-0.032	0.093	
4.0	0.0	0.0	0.0	0.0	-0.013	0.061	
5.0	0.0	0.0	0.0	0.0	-0.006	0.163	
6.0	0.0	0.0	0.0	0.0	0.0	0.035	
7.0	0.0	0.0	0.0	0.0	0.01	-0.019	
8.0	0.0	0.0	0.0	0.0	0.016	-0.042	
9.0	0.0	0.0	0.0	0.0	0.016	-0.026	
10.0	0.0	0.0	0.0	0.0	0.019	-0.026	
11.0	0.0	0.0	0.0	0.0	0.019	-0.038	
12.0	0.0	0.0	0.0	0.0	0.022	-0.045	
13.0	0.0	0.0	0.0	0.0	0.01	-0.026	
14.0	0.0	0.0	0.0	0.0	-0.003	-0.006	
15.0	0.0	0.0	0.0	0.0	-0.003	0.006	
0.0	0.0	0.0	0.0	0.0	-0.003	-0.048	
1.0	0.0	0.0	0.0	0.0	0.01	-0.083	
2.0	0.0	0.0	0.0	0.0	-0.01	-0.067	
3.0	0.0	0.0	0.0	0.0	-0.006	-0.08	
4.0	0.0	0.0	0.0	0.0	0.0	-0.099	
5.0	0.0	0.0	0.0	0.0	0.003	0.217	
6.0	0.0	0.0	0.0	0.0	-0.022	0.144	
7.0	0.0	0.0	0.0	0.0	-0.035	0.016	
8.0	0.0	0.0	0.0	0.0	-0.016	-0.172	
9.0	0.0	0.0	0.0	0.0	-0.003	-0.109	
10.0	0.0	0.0	0.0	0.0	0.006	-0.048	
11.0	0.0	0.0	0.0	0.0	0.006	0.057	
12.0	0.0	0.0	0.0	0.0	0.01	0.083	
13.0	0.0	0.0	0.0	0.0	0.016	0.07	
14.0	0.0	0.0	0.0	0.0	0.019	-0.003	
15.0	0.0	0.0	0.0	0.0	0.019	-0.022	
0.0	0.0	0.0	0.0	0.0	0.013	-0.026	
1.0	0.0	0.0	0.0	0.0	0.006	-0.035	
2.0	0.0	0.0	0.0	0.0	0.0	-0.08	
3.0	0.0	0.0	0.0	0.0	-0.01	0.01	
4.0	0.0	0.0	0.0	0.0	-0.013	-0.019	
5.0	0.0	0.0	0.0	0.0	0.006	-0.051	
6.0	0.0	0.0	0.0	0.0	0.0	-0.026	
7.0	0.0	0.0	0.0	0.0	-0.006	-0.01	
8.0	0.0	0.0	0.0	0.0	-0.006	-0.019	
9.0	0.0	0.0	0.0	0.0	-0.016	-0.01	
10.0	0.0	0.0	0.0	0.0	-0.035	0.01	
11.0	0.0	0.0	0.0	0.0	-0.045	0.006	
12.0	0.0	0.0	0.0	0.0	-0.032	0.042	
13.0	0.0	0.0	0.0	0.0	-0.013	0.003	
14.0	0.0	0.0	0.0	0.0	0.003	-0.038	
15.0	0.0	0.0	0.0	0.0	0.019	-0.339	
0.0	0.0	0.0	0.0	0.0	0.022	-0.102	
1.0	0.0	0.0	0.0	0.0	0.035	0.169	
2.0	0.0	0.0	0.0	0.0	0.026	0.214	
3.0	0.0	0.0	0.0	0.0	0.01	0.061	
4.0	0.0	0.0	0.0	0.0	-0.003	-0.067	
5.0	0.0	0.0	0.0	0.0	0.006	-0.067	
6.0	0.0	0.0	0.0	0.0	0.0	-0.134	
7.0	0.0	0.0	0.0	0.0	0.0	-0.144	
8.0	0.0	0.0	0.0	0.0	0.013	-0.067	
9.0	0.0	0.0	0.0	0.0	0.029	0.048	
10.0	0.0	0.0	0.0	0.0	0.01	0.019	
11.0	0.0	0.0	0.0	0.0	0.003	-0.003	
12.0	0.0	0.0	0.0	0.0	-0.003	-0.067	
13.0	0.0	0.0	0.0	0.0	-0.013	-0.022	
14.0	0.0	0.0	0.0	0.0	-0.045	0.163	
15.0	0.0	0.0	0.0	0.0	-0.042	0.035	
0.0	0.0	0.0	0.0	0.0	-0.019	-0.006	
1.0	0.0	0.0	0.0	0.0	0.0	0.157	
2.0	0.0	0.0	0.0	0.0	0.006	0.377	
3.0	0.0	0.0	0.0	0.0	0.01	0.287	
4.0	0.0	0.0	0.0	0.0	0.019	-0.31	
5.0	0.0	0.0	0.0	0.0	-0.003	-0.434	
6.0	0.0	0.0	0.0	0.0	-0.01	-0.355	
7.0	0.0	0.0	0.0	0.0	-0.006	-0.224	
8.0	0.0	0.0	0.0	0.0	0.013	-0.163	
9.0	0.0	0.0	0.0	0.0	0.016	0.166	
10.0	0.0	0.0	0.0	0.0	0.016	0.24	
11.0	0.0	0.0	0.0	0.0	0.01	0.128	
12.0	0.0	0.0	0.0	0.0	0.01	0.105	
13.0	0.0	0.0	0.0	0.0	0.022	-0.086	
14.0	0.0	0.0	0.0	0.0	0.0	-0.105	
15.0	0.0	0.0	0.0	0.0	-0.013	0.003	
0.0	0.0	0.0	0.0	0.0	-0.032	-0.182	
1.0	0.0	0.0	0.0	0.0	-0.026	-0.169	
2.0	0.0	0.0	0.0	0.0	-0.038	-0.035	
3.0	0.0	0.0	0.0	0.0	-0.029	0.061	
4.0	0.0	0.0	0.0	0.0	-0.006	0.073	
5.0	0.0	0.0	0.0	0.0	0.003	0.307	
6.0	0.0	0.0	0.0	0.0	0.016	0.089	
7.0	0.0	0.0	0.0	0.0	0.01	-0.089	
8.0	0.0	0.0	0.0	0.0	0.0	-0.211	
9.0	0.0	0.0	0.0	0.0	0.019	-0.118	
10.0	0.0	0.0	0.0	0.0	0.026	-0.08	
11.0	0.0	0.0	0.0	0.0	0.016	-0.176	
12.0	0.0	0.0	0.0	0.0	0.013	0.096	
13.0	0.0	0.0	0.0	0.0	0.006	0.22	
14.0	0.0	0.0	0.0	0.0	0.006	-0.01	
15.0	0.0	0.0	0.0	0.0	-0.003	-0.048	
0.0	0.0	0.0	0.0	0.0	0.003	-0.096	
1.0	0.0	0.0	0.0	0.0	0.003	-0.061	
2.0	0.0	0.0	0.0	0.0	-0.01	-0.128	
3.0	0.0	0.0	0.0	0.0	-0.016	-0.192	
4.0	0.0	0.0	0.0	0.0	-0.003	0.182	
5.0	0.0	0.0	0.0	0.0	-0.016	0.054	
6.0	0.0	0.0	0.0	0.0	-0.032	0.003	
7.0	0.0	0.0	0.0	0.0	-0.035	-0.153	
8.0	0.0	0.0	0.0	0.0	-0.026	0.057	
9.0	0.0	0.0	0.0	0.0	0.0	0.105	
10.0	0.0	0.0	0.0	0.0	0.006	0.054	
11.0	0.0	0.0	0.0	0.0	0.016	-0.038	
12.0	0.0	0.0	0.0	0.0	0.026	-0.07	
13.0	0.0	0.0	0.0	0.0	0.029	0.032	
14.0	0.0	0.0	0.0	0.0	0.026	0.019	
15.0	0.0	0.0	0.0	0.0	0.006	0.096	
0.0	0.0	0.0	0.0	0.0	0.0	0.077	
1.0	0.0	0.0	0.0	0.0	0.003	0.01	
2.0	0.0	0.0	0.0	0.0	0.0	-0.042	
3.0	0.0	0.0	0.0	0.0	0.003	0.003	
4.0	0.0	0.0	0.0	0.0	0.013	-0.042	
5.0	0.0	0.0	0.0	0.0	0.01	-0.22	
6.0	0.0	0.0	0.0	0.0	0.0	-0.37	
7.0	0.0	0.0	0.0	0.0	-0.003	0.026	
8.0	0.0	0.0	0.0	0.0	-0.013	0.006	
9.0	0.0	0.0	0.0	0.0	-0.022	-0.067	
10.0	0.0	0.0	0.0	0.0	-0.042	0.278	
11.0	0.0	0.0	0.0	0.0	-0.035	0.083	
12.0	0.0	0.0	0.0	0.0	-0.013	-0.217	
13.0	0.0	0.0	0.0	0.0	-0.016	-0.243	
14.0	0.0	0.0	0.0	0.0	-0.006	-0.118	
15.0	0.0	0.0	0.0	0.0	0.013	-0.099	
0.0	0.0	0.0	0.0	0.0	0.006	0.291	
1.0	0.0	0.0	0.0	0.0	0.016	0.351	
2.0	0.0	0.0	0.0	0.0	0.042	0.204	
3.0	0.0	0.0	0.0	0.0	0.026	0.026	
4.0	0.0	0.0	0.0	0.0	0.01	-0.243	
5.0	0.0	0.0	0.0	0.0	0.01	-0.134	
6.0	0.0	0.0	0.0	0.0	-0.006	0.179	
7.0	0.0	0.0	0.0	0.0	0.0	-0.31	
8.0	0.0	0.0	0.0	0.0	0.006	0.019	
9.0	0.0	0.0	0.0	0.0	0.006	0.064	
10.0	0.0	0.0	0.0	0.0	-0.016	-0.422	
11.0	0.0	0.0	0.0	0.0	-0.032	-0.297	
12.0	0.0	0.0	0.0	0.0	-0.026	0.256	
13.0	0.0	0.0	0.0	0.0	-0.019	-0.102	
14.0	0.0	0.0	0.0	0.0	-0.029	0.195	
15.0	0.0	0.0	0.0	0.0	0.0	0.054	
0.0	0.0	0.0	0.0	0.0	0.003	-0.054	
1.0	0.0	0.0	0.0	0.0	-0.006	0.176	
2.0	0.0	0.0	0.0	0.0	-0.006	0.201	
3.0	0.0	0.0	0.0	0.0	0.0	-0.099	
4.0	0.0	0.0	0.0	0.0	0.006	-0.093	
5.0	0.0	0.0	0.0	0.0	-0.006	0.013	
6.0	0.0	0.0	0.0	0.0	0.0	0.275	
7.0	0.0	0.0	0.0	0.0	0.019	0.131	
8.0	0.0	0.0	0.0	0.0	0.013	-0.131	
9.0	0.0	0.0	0.0	0.0	0.003	-0.348	
10.0	0.0	0.0	0.0	0.0	-0.035	-0.201	
11.0	0.0	0.0	0.0	0.0	-0.01	-0.16	
12.0	0.0	0.0	0.0	0.0	0.022	-0.418	
13.0	0.0	0.0	0.0	0.0	0.048	0.121	
14.0	0.0	0.0	0.0	0.0	0.038	0.345	
15.0	0.0	0.0	0.0	0.0	0.01	0.128	
0.0	0.0	0.0	0.0	0.0	0.0	-0.035	
1.0	0.0	0.0	0.0	0.0	-0.013	-0.089	
2.0	0.0	0.0	0.0	0.0	-0.032	-0.115	
3.0	0.0	0.0	0.0	0.0	-0.038	-0.073	
4.0	0.0	0.0	0.0	0.0	-0.026	-0.003	
5.0	0.0	0.0	0.0	0.0	-0.026	0.275	
6.0	0.0	0.0	0.0	0.0	-0.013	0.172	
7.0	0.0	0.0	0.0	0.0	-0.01	0.121	
8.0	0.0	0.0	0.0	0.0	-0.003	-0.307	
9.0	0.0	0.0	0.0	0.0	0.013	-0.013	
10.0	0.0	0.0	0.0	0.0	0.022	-0.016	
11.0	0.0	0.0	0.0	0.0	0.022	-0.323	
12.0	0.0	0.0	0.0	0.0	0.013	-0.176	
13.0	0.0	0.0	0.0	0.0	0.006	0.054	
14.0	0.0	0.0	0.0	0.0	0.006	0.086	
15.0	0.0	0.0	0.0	0.0	-0.016	0.227	
0.0	0.0	0.0	0.0	0.0	-0.013	0.377	
1.0	0.0	0.0	0.0	0.0	0.0	-0.172	
2.0	0.0	0.0	0.0	0.0	0.01	-0.236	
3.0	0.0	0.0	0.0	0.0	-0.022	0.144	
4.0	0.0	0.0	0.0	0.0	-0.026	0.032	
5.0	0.0	0.0	0.0	0.0	0.01	-0.208	
6.0	0.0	0.0	0.0	0.0	-0.003	-0.412	
7.0	0.0	0.0	0.0	0.0	-0.006	-0.374	
8.0	0.0	0.0	0.0	0.0	0.006	-0.089	
9.0	0.0	0.0	0.0	0.0	-0.003	0.105	
10.0	0.0	0.0	0.0	0.0	-0.003	0.473	
11.0	0.0	0.0	0.0	0.0	0.006	0.176	
12.0	0.0	0.0	0.0	0.0	0.029	-0.038	
13.0	0.0	0.0	0.0	0.0	0.026	0.179	
14.0	0.0	0.0	0.0	0.0	0.01	0.061	
15.0	0.0	0.0	0.0	0.0	-0.013	-0.211	
0.0	0.0	0.0	0.0	0.0	-0.019	-0.284	
1.0	0.0	0.0	0.0	0.0	-0.019	-0.307	
2.0	0.0	0.0	0.0	0.0	-0.006	0.179	
3.0	0.0	0.0	0.0	0.0	0.013	0.38	
4.0	0.0	0.0	0.0	0.0	0.019	0.105	
5.0	0.0	0.0	0.0	0.0	0.013	0.08	
6.0	0.0	0.0	0.0	0.0	0.006	-0.128	
7.0	0.0	0.0	0.0	0.0	-0.013	-0.08	
8.0	0.0	0.0	0.0	0.0	-0.016	-0.067	
9.0	0.0	0.0	0.0	0.0	-0.019	-0.115	
10.0	0.0	0.0	0.0	0.0	-0.057	-0.016	
11.0	0.0	0.0	0.0	0.0	-0.064	0.179	
12.0	0.0	0.0	0.0	0.0	0.022	-0.275	
13.0	0.0	0.0	0.0	0.0	0.035	-0.214	
14.0	0.0	0.0	0.0	0.0	0.022	-0.198	
15.0	0.0	0.0	0.0	0.0	0.016	0.026	
0.0	0.0	0.0	0.0	0.0	0.006	0.204	
1.0	0.0	0.0	0.0	0.0	0.032	0.109	
2.0	0.0	0.0	0.0	0.0	0.042	-0.118	
3.0	0.0	0.0	0.0	0.0	0.022	-0.22	
4.0	0.0	0.0	0.0	0.0	0.003	-0.198	
5.0	0.0	0.0	0.0	0.0	0.01	-0.294	
6.0	0.0	0.0	0.0	0.0	-0.013	0.137	
7.0	0.0	0.0	0.0	0.0	-0.035	0.345	
8.0	0.0	0.0	0.0	0.0	-0.013	0.086	
9.0	0.0	0.0	0.0	0.0	0.013	-0.057	
10.0	0.0	0.0	0.0	0.0	-0.006	0.137	
11.0	0.0	0.0	0.0	0.0	-0.006	0.093	
12.0	0.0	0.0	0.0	0.0	-0.006	0.048	
13.0	0.0	0.0	0.0	0.0	-0.019	-0.003	
14.0	0.0	0.0	0.0	0.0	-0.042	-0.045	
15.0	0.0	0.0	0.0	0.0	-0.029	-0.038	
0.0	0.0	0.0	0.0	0.0	-0.006	-0.15	
1.0	0.0	0.0	0.0	0.0	-0.01	-0.077	
2.0	0.0	0.0	0.0	0.0	-0.01	0.131	
3.0	0.0	0.0	0.0	0.0	0.0	-0.016	
4.0	0.0	0.0	0.0	0.0	0.026	-0.131	
5.0	0.0	0.0	0.0	0.0	0.022	0.121	
6.0	0.0	0.0	0.0	0.0	0.003	0.249	
7.0	0.0	0.0	0.0	0.0	0.032	0.188	
8.0	0.0	0.0	0.0	0.0	0.026	-0.006	
9.0	0.0	0.0	0.0	0.0	0.022	-0.262	
10.0	0.0	0.0	0.0	0.0	0.003	-0.067	
11.0	0.0	0.0	0.0	0.0	-0.003	-0.102	
12.0	0.0	0.0	0.0	0.0	-0.006	-0.271	
13.0	0.0	0.0	0.0	0.0	0.0	-0.431	
14.0	0.0	0.0	0.0	0.0	-0.01	-0.45	
15.0	0.0	0.0	0.0	0.0	-0.016	0.412	
0.0	0.0	0.0	0.0	0.0	0.01	0.252	
1.0	0.0	0.0	0.0	0.0	0.019	0.16	
2.0	0.0	0.0	0.0	0.0	-0.026	0.125	
3.0	0.0	0.0	0.0	0.0	-0.045	0.125	
4.0	0.0	0.0	0.0	0.0	-0.026	0.115	
5.0	0.0	0.0	0.0	0.0	-0.013	0.061	
6.0	0.0	0.0	0.0	0.0	0.006	-0.102	
7.0	0.0	0.0	0.0	0.0	0.016	-0.166	
8.0	0.0	0.0	0.0	0.0	0.022	-0.131	
9.0	0.0	0.0	0.0	0.0	0.01	-0.348	
10.0	0.0	0.0	0.0	0.0	-0.003	-0.032	
11.0	0.0	0.0	0.0	0.0	-0.006	0.233	
12.0	0.0	0.0	0.0	0.0	-0.01	0.284	
13.0	0.0	0.0	0.0	0.0	-0.022	-0.042	
14.0	0.0	0.0	0.0	0.0	-0.006	0.045	
15.0	0.0	0.0	0.0	0.0	0.016	-0.198	
0.0	0.0	0.0	0.0	0.0	0.01	-0.195	
1.0	0.0	0.0	0.0	0.0	0.0	-0.287	
2.0	0.0	0.0	0.0	0.0	0.003	-0.297	
3.0	0.0	0.0	0.0	0.0	0.013	0.271	
4.0	0.0	0.0	0.0	0.0	0.019	0.584	
5.0	0.0	0.0	0.0	0.0	0.006	0.236	
6.0	0.0	0.0	0.0	0.0	-0.029	0.013	
7.0	0.0	0.0	0.0	0.0	-0.038	-0.217	
8.0	0.0	0.0	0.0	0.0	-0.022	-0.422	
9.0	0.0	0.0	0.0	0.0	0.0	-0.224	
10.0	0.0	0.0	0.0	0.0	-0.019	-0.019	
11.0	0.0	0.0	0.0	0.0	0.0	0.37	
12.0	0.0	0.0	0.0	0.0	0.042	0.08	
13.0	0.0	0.0	0.0	0.0	0.038	-0.006	
14.0	0.0	0.0	0.0	0.0	0.013	-0.061	
15.0	0.0	0.0	0.0	0.0	0.006	-0.118	
0.0	0.0	0.0	0.0	0.0	0.0	-0.003	
1.0	0.0	0.0	0.0	0.0	0.0	0.172	
2.0	0.0	0.0	0.0	0.0	0.003	0.061	
3.0	0.0	0.0	0.0	0.0	-0.013	-0.188	
4.0	0.0	0.0	0.0	0.0	-0.01	-0.259	
5.0	0.0	0.0	0.0	0.0	0.006	-0.252	
6.0	0.0	0.0	0.0	0.0	0.006	-0.099	
7.0	0.0	0.0	0.0	0.0	0.01	-0.026	
8.0	0.0	0.0	0.0	0.0	-0.01	0.454	
9.0	0.0	0.0	0.0	0.0	-0.013	0.217	
10.0	0.0	0.0	0.0	0.0	-0.029	-0.112	
11.0	0.0	0.0	0.0	0.0	-0.032	-0.125	
12.0	0.0	0.0	0.0	0.0	-0.022	-0.377	
13.0	0.0	0.0	0.0	0.0	-0.013	0.077	
14.0	0.0	0.0	0.0	0.0	0.0	0.153	
15.0	0.0	0.0	0.0	0.0	0.019	0.3	
0.0	0.0	0.0	0.0	0.0	0.035	0.01	
1.0	0.0	0.0	0.0	0.0	0.038	-0.157	
2.0	0.0	0.0	0.0	0.0	0.013	-0.038	
3.0	0.0	0.0	0.0	0.0	0.016	-0.013	
4.0	0.0	0.0	0.0	0.0	0.013	-0.153	
5.0	0.0	0.0	0.0	0.0	-0.01	0.112	
6.0	0.0	0.0	0.0	0.0	-0.013	-0.102	
7.0	0.0	0.0	0.0	0.0	-0.022	-0.099	
8.0	0.0	0.0	0.0	0.0	-0.019	-0.265	
9.0	0.0	0.0	0.0	0.0	-0.003	0.236	
10.0	0.0	0.0	0.0	0.0	0.01	0.172	
11.0	0.0	0.0	0.0	0.0	0.013	0.01	
12.0	0.0	0.0	0.0	0.0	-0.003	-0.032	
13.0	0.0	0.0	0.0	0.0	-0.022	-0.035	
14.0	0.0	0.0	0.0	0.0	-0.038	0.061	
15.0	0.0	0.0	0.0	0.0	-0.022	0.035	
0.0	0.0	0.0	0.0	0.0	-0.022	-0.128	
1.0	0.0	0.0	0.0	0.0	-0.01	-0.051	
2.0	0.0	0.0	0.0	0.0	0.0	-0.115	
3.0	0.0	0.0	0.0	0.0	0.003	0.003	
4.0	0.0	0.0	0.0	0.0	0.022	-0.086	
5.0	0.0	0.0	0.0	0.0	0.022	-0.029	
6.0	0.0	0.0	0.0	0.0	0.022	0.102	
7.0	0.0	0.0	0.0	0.0	0.035	0.01	
8.0	0.0	0.0	0.0	0.0	0.026	-0.042	
9.0	0.0	0.0	0.0	0.0	0.006	-0.169	
10.0	0.0	0.0	0.0	0.0	-0.003	-0.035	
11.0	0.0	0.0	0.0	0.0	0.0	0.089	
12.0	0.0	0.0	0.0	0.0	0.016	0.121	
13.0	0.0	0.0	0.0	0.0	0.01	0.185	
14.0	0.0	0.0	0.0	0.0	0.0	-0.109	
15.0	0.0	0.0	0.0	0.0	-0.006	-0.105	
0.0	0.0	0.0	0.0	0.0	-0.003	-0.125	
1.0	0.0	0.0	0.0	0.0	-0.019	-0.099	
2.0	0.0	0.0	0.0	0.0	-0.051	-0.026	
3.0	0.0	0.0	0.0	0.0	-0.038	-0.086	
4.0	0.0	0.0	0.0	0.0	-0.019	-0.067	
5.0	0.0	0.0	0.0	0.0	-0.016	0.166	
6.0	0.0	0.0	0.0	0.0	0.013	0.035	
7.0	0.0	0.0	0.0	0.0	0.026	-0.192	
8.0	0.0	0.0	0.0	0.0	0.016	-0.115	
9.0	0.0	0.0	0.0	0.0	0.019	0.163	
10.0	0.0	0.0	0.0	0.0	0.022	0.224	
11.0	0.0	0.0	0.0	0.0	0.013	0.188	
12.0	0.0	0.0	0.0	0.0	-0.003	-0.08	
13.0	0.0	0.0	0.0	0.0	-0.013	-0.08	
14.0	0.0	0.0	0.0	0.0	-0.019	0.176	
15.0	0.0	0.0	0.0	0.0	-0.022	-0.026	
0.0	0.0	0.0	0.0	0.0	-0.01	-0.166	
1.0	0.0	0.0	0.0	0.0	0.013	-0.268	
2.0	0.0	0.0	0.0	0.0	0.006	0.029	
3.0	0.0	0.0	0.0	0.0	0.0	0.022	
4.0	0.0	0.0	0.0	0.0	0.029	0.038	
5.0	0.0	0.0	0.0	0.0	0.019	-0.045	
6.0	0.0	0.0	0.0	0.0	-0.026	0.006	
7.0	0.0	0.0	0.0	0.0	-0.051	-0.294	
8.0	0.0	0.0	0.0	0.0	-0.026	-0.051	
9.0	0.0	0.0	0.0	0.0	-0.006	0.102	
10.0	0.0	0.0	0.0	0.0	-0.01	0.227	
11.0	0.0	0.0	0.0	0.0	0.0	-0.073	
12.0	0.0	0.0	0.0	0.0	0.01	-0.064	
13.0	0.0	0.0	0.0	0.0	0.016	-0.026	
14.0	0.0	0.0	0.0	0.0	0.013	-0.042	
15.0	0.0	0.0	0.0	0.0	0.01	-0.057	
0.0	0.0	0.0	0.0	0.0	0.019	-0.115	
1.0	0.0	0.0	0.0	0.0	0.019	0.057	
2.0	0.0	0.0	0.0	0.0	0.006	0.022	
3.0	0.0	0.0	0.0	0.0	0.01	-0.073	
4.0	0.0	0.0	0.0	0.0	0.0	-0.013	
5.0	0.0	0.0	0.0	0.0	0.0	-0.029	
6.0	0.0	0.0	0.0	0.0	-0.026	-0.089	
7.0	0.0	0.0	0.0	0.0	-0.01	0.077	
8.0	0.0	0.0	0.0	0.0	0.006	-0.029	
9.0	0.0	0.0	0.0	0.0	0.01	-0.297	
10.0	0.0	0.0	0.0	0.0	-0.032	0.422	
11.0	0.0	0.0	0.0	0.0	-0.032	-0.016	
12.0	0.0	0.0	0.0	0.0	-0.006	-0.026	
13.0	0.0	0.0	0.0	0.0	0.003	0.115	
14.0	0.0	0.0	0.0	0.0	0.003	0.022	
15.0	0.0	0.0	0.0	0.0	-0.006	0.144	
0.0	0.0	0.0	0.0	0.0	-0.003	-0.032	
1.0	0.0	0.0	0.0	0.0	0.013	-0.409	
2.0	0.0	0.0	0.0	0.0	0.022	-0.121	
3.0	0.0	0.0	0.0	0.0	0.016	-0.064	
4.0	0.0	0.0	0.0	0.0	0.0	0.048	
5.0	0.0	0.0	0.0	0.0	0.003	0.01	
6.0	0.0	0.0	0.0	0.0	0.013	-0.045	
7.0	0.0	0.0	0.0	0.0	0.01	-0.019	
8.0	0.0	0.0	0.0	0.0	0.003	0.192	
9.0	0.0	0.0	0.0	0.0	-0.006	0.275	
10.0	0.0	0.0	0.0	0.0	-0.019	0.179	
11.0	0.0	0.0	0.0	0.0	-0.013	-0.166	
12.0	0.0	0.0	0.0	0.0	0.003	-0.201	
13.0	0.0	0.0	0.0	0.0	-0.003	-0.265	
14.0	0.0	0.0	0.0	0.0	-0.022	-0.026	
15.0	0.0	0.0	0.0	0.0	-0.016	0.07	
0.0	0.0	0.0	0.0	0.0	-0.016	0.006	
1.0	0.0	0.0	0.0	0.0	-0.006	-0.093	
2.0	0.0	0.0	0.0	0.0	-0.003	0.035	
3.0	0.0	0.0	0.0	0.0	0.006	-0.077	
4.0	0.0	0.0	0.0	0.0	-0.003	0.393	
5.0	0.0	0.0	0.0	0.0	0.01	0.057	
6.0	0.0	0.0	0.0	0.0	0.026	0.01	
7.0	0.0	0.0	0.0	0.0	0.029	-0.144	
8.0	0.0	0.0	0.0	0.0	0.022	-0.463	
9.0	0.0	0.0	0.0	0.0	0.019	-0.089	
10.0	0.0	0.0	0.0	0.0	-0.003	-0.016	
11.0	0.0	0.0	0.0	0.0	-0.006	0.089	
12.0	0.0	0.0	0.0	0.0	0.0	0.022	
13.0	0.0	0.0	0.0	0.0	0.016	-0.003	
14.0	0.0	0.0	0.0	0.0	0.003	-0.006	
15.0	0.0	0.0	0.0	0.0	-0.006	0.0	
0.0	0.0	0.0	0.0	0.0	-0.006	-0.042	
1.0	0.0	0.0	0.0	0.0	-0.013	-0.013	
2.0	0.0	0.0	0.0	0.0	-0.045	0.048	
3.0	0.0	0.0	0.0	0.0	-0.035	0.048	
4.0	0.0	0.0	0.0	0.0	-0.016	-0.006	
5.0	0.0	0.0	0.0	0.0	-0.013	-0.185	
6.0	0.0	0.0	0.0	0.0	-0.003	-0.134	
7.0	0.0	0.0	0.0	0.0	0.022	0.026	
8.0	0.0	0.0	0.0	0.0	0.019	-0.217	
9.0	0.0	0.0	0.0	0.0	0.01	0.329	
10.0	0.0	0.0	0.0	0.0	0.013	-0.083	
11.0	0.0	0.0	0.0	0.0	0.013	-0.08	
12.0	0.0	0.0	0.0	0.0	0.022	0.141	
13.0	0.0	0.0	0.0	0.0	0.01	0.035	
14.0	0.0	0.0	0.0	0.0	0.003	0.128	
15.0	0.0	0.0	0.0	0.0	0.0	0.061	
0.0	0.0	0.0	0.0	0.0	0.003	-0.093	
1.0	0.0	0.0	0.0	0.0	0.01	0.01	
2.0	0.0	0.0	0.0	0.0	0.003	-0.067	
3.0	0.0	0.0	0.0	0.0	-0.003	-0.089	
4.0	0.0	0.0	0.0	0.0	-0.013	-0.096	
5.0	0.0	0.0	0.0	0.0	-0.029	-0.144	
6.0	0.0	0.0	0.0	0.0	-0.038	-0.112	
7.0	0.0	0.0	0.0	0.0	-0.032	0.112	
8.0	0.0	0.0	0.0	0.0	-0.01	0.073	
9.0	0.0	0.0	0.0	0.0	-0.003	0.096	
10.0	0.0	0.0	0.0	0.0	-0.006	0.243	
11.0	0.0	0.0	0.0	0.0	0.003	0.01	
12.0	0.0	0.0	0.0	0.0	0.0	-0.16	
13.0	0.0	0.0	0.0	0.0	0.006	-0.275	
14.0	0.0	0.0	0.0	0.0	0.006	0.01	
15.0	0.0	0.0	0.0	0.0	0.019	-0.022	
0.0	0.0	0.0	0.0	0.0	0.026	-0.102	
1.0	0.0	0.0	0.0	0.0	0.016	0.086	
2.0	0.0	0.0	0.0	0.0	0.0	-0.01	
3.0	0.0	0.0	0.0	0.0	0.003	0.07	
4.0	0.0	0.0	0.0	0.0	0.016	-0.064	
5.0	0.0	0.0	0.0	0.0	0.026	-0.061	
6.0	0.0	0.0	0.0	0.0	0.006	-0.112	
7.0	0.0	0.0	0.0	0.0	-0.01	-0.172	
8.0	0.0	0.0	0.0	0.0	-0.003	0.157	
9.0	0.0	0.0	0.0	0.0	-0.003	0.105	
10.0	0.0	0.0	0.0	0.0	-0.032	0.096	
11.0	0.0	0.0	0.0	0.0	-0.035	0.073	
12.0	0.0	0.0	0.0	0.0	-0.032	-0.112	
13.0	0.0	0.0	0.0	0.0	-0.019	-0.348	
14.0	0.0	0.0	0.0	0.0	-0.006	-0.23	
15.0	0.0	0.0	0.0	0.0	0.016	-0.137	
0.0	0.0	0.0	0.0	0.0	0.006	0.271	
1.0	0.0	0.0	0.0	0.0	0.013	0.428	
2.0	0.0	0.0	0.0	0.0	0.013	0.188	
3.0	0.0	0.0	0.0	0.0	0.013	-0.236	
4.0	0.0	0.0	0.0	0.0	0.022	-0.208	
5.0	0.0	0.0	0.0	0.0	0.013	-0.096	
6.0	0.0	0.0	0.0	0.0	-0.013	-0.105	
7.0	0.0	0.0	0.0	0.0	-0.01	-0.118	
8.0	0.0	0.0	0.0	0.0	0.013	-0.054	
9.0	0.0	0.0	0.0	0.0	0.019	-0.019	
10.0	0.0	0.0	0.0	0.0	0.006	-0.067	
11.0	0.0	0.0	0.0	0.0	-0.01	0.211	
12.0	0.0	0.0	0.0	0.0	-0.006	0.153	
13.0	0.0	0.0	0.0	0.0	0.003	0.099	
14.0	0.0	0.0	0.0	0.0	-0.038	-0.006	
15.0	0.0	0.0	0.0	0.0	-0.035	0.105	
0.0	0.0	0.0	0.0	0.0	-0.035	0.061	
1.0	0.0	0.0	0.0	0.0	-0.013	-0.157	
2.0	0.0	0.0	0.0	0.0	0.003	-0.172	
3.0	0.0	0.0	0.0	0.0	0.016	-0.198	
4.0	0.0	0.0	0.0	0.0	0.013	-0.022	
5.0	0.0	0.0	0.0	0.0	0.022	-0.157	
6.0	0.0	0.0	0.0	0.0	0.026	-0.07	
7.0	0.0	0.0	0.0	0.0	0.013	0.466	
8.0	0.0	0.0	0.0	0.0	0.01	0.399	
9.0	0.0	0.0	0.0	0.0	0.003	-0.045	
10.0	0.0	0.0	0.0	0.0	-0.003	-0.179	
11.0	0.0	0.0	0.0	0.0	0.0	-0.099	
12.0	0.0	0.0	0.0	0.0	0.0	-0.093	
13.0	0.0	0.0	0.0	0.0	-0.003	-0.125	
14.0	0.0	0.0	0.0	0.0	-0.019	-0.102	
15.0	0.0	0.0	0.0	0.0	-0.013	-0.086	
0.0	0.0	0.0	0.0	0.0	-0.003	-0.042	
1.0	0.0	0.0	0.0	0.0	-0.022	0.157	
2.0	0.0	0.0	0.0	0.0	-0.048	0.118	
3.0	0.0	0.0	0.0	0.0	-0.026	-0.019	
4.0	0.0	0.0	0.0	0.0	-0.003	-0.099	
5.0	0.0	0.0	0.0	0.0	0.0	-0.054	
6.0	0.0	0.0	0.0	0.0	0.0	-0.224	
7.0	0.0	0.0	0.0	0.0	0.016	0.313	
8.0	0.0	0.0	0.0	0.0	0.016	0.134	
9.0	0.0	0.0	0.0	0.0	0.022	-0.243	
10.0	0.0	0.0	0.0	0.0	0.019	-0.246	
11.0	0.0	0.0	0.0	0.0	0.022	-0.006	
12.0	0.0	0.0	0.0	0.0	0.029	-0.051	
13.0	0.0	0.0	0.0	0.0	0.016	-0.054	
14.0	0.0	0.0	0.0	0.0	-0.003	-0.042	
15.0	0.0	0.0	0.0	0.0	-0.013	-0.077	
0.0	0.0	0.0	0.0	0.0	0.0	-0.109	
1.0	0.0	0.0	0.0	0.0	-0.003	0.153	
2.0	0.0	0.0	0.0	0.0	-0.003	0.032	
3.0	0.0	0.0	0.0	0.0	-0.013	0.15	
4.0	0.0	0.0	0.0	0.0	-0.016	0.262	
5.0	0.0	0.0	0.0	0.0	-0.016	-0.029	
6.0	0.0	0.0	0.0	0.0	-0.042	-0.287	
7.0	0.0	0.0	0.0	0.0	-0.029	-0.198	
8.0	0.0	0.0	0.0	0.0	-0.006	-0.243	
9.0	0.0	0.0	0.0	0.0	-0.013	0.089	
10.0	0.0	0.0	0.0	0.0	0.006	0.367	
11.0	0.0	0.0	0.0	0.0	0.019	0.125	
12.0	0.0	0.0	0.0	0.0	0.026	0.006	
13.0	0.0	0.0	0.0	0.0	0.048	0.131	
14.0	0.0	0.0	0.0	0.0	0.045	0.15	
15.0	0.0	0.0	0.0	0.0	0.022	-0.188	
0.0	0.0	0.0	0.0	0.0	0.022	-0.141	
1.0	0.0	0.0	0.0	0.0	0.01	-0.061	
2.0	0.0	0.0	0.0	0.0	-0.013	-0.054	
3.0	0.0	0.0	0.0	0.0	-0.016	-0.096	
4.0	0.0	0.0	0.0	0.0	-0.013	-0.093	
5.0	0.0	0.0	0.0	0.0	-0.01	-0.128	
6.0	0.0	0.0	0.0	0.0	-0.006	-0.134	
7.0	0.0	0.0	0.0	0.0	-0.013	0.048	
8.0	0.0	0.0	0.0	0.0	-0.006	0.086	
9.0	0.0	0.0	0.0	0.0	-0.006	-0.035	
10.0	0.0	0.0	0.0	0.0	-0.042	0.192	
11.0	0.0	0.0	0.0	0.0	-0.029	0.073	
12.0	0.0	0.0	0.0	0.0	-0.016	-0.026	
13.0	0.0	0.0	0.0	0.0	-0.003	-0.067	
14.0	0.0	0.0	0.0	0.0	0.0	-0.08	
15.0	0.0	0.0	0.0	0.0	0.016	-0.105	
0.0	0.0	0.0	0.0	0.0	0.01	-0.077	
1.0	0.0	0.0	0.0	0.0	0.006	0.003	
2.0	0.0	0.0	0.0	0.0	0.006	-0.003	
3.0	0.0	0.0	0.0	0.0	0.013	-0.07	
4.0	0.0	0.0	0.0	0.0	0.016	-0.057	
5.0	0.0	0.0	0.0	0.0	0.01	0.316	
6.0	0.0	0.0	0.0	0.0	0.006	0.351	
7.0	0.0	0.0	0.0	0.0	0.016	-0.153	
8.0	0.0	0.0	0.0	0.0	0.013	-0.15	
9.0	0.0	0.0	0.0	0.0	0.003	-0.23	
10.0	0.0	0.0	0.0	0.0	-0.013	-0.166	
11.0	0.0	0.0	0.0	0.0	-0.019	0.061	
12.0	0.0	0.0	0.0	0.0	-0.01	0.169	
13.0	0.0	0.0	0.0	0.0	-0.016	0.061	
14.0	0.0	0.0	0.0	0.0	-0.032	-0.035	
15.0	0.0	0.0	0.0	0.0	-0.042	-0.016	
0.0	0.0	0.0	0.0	0.0	-0.026	-0.105	
1.0	0.0	0.0	0.0	0.0	-0.013	-0.169	
2.0	0.0	0.0	0.0	0.0	0.003	0.275	
3.0	0.0	0.0	0.0	0.0	0.022	-0.144	
4.0	0.0	0.0	0.0	0.0	0.013	-0.192	
5.0	0.0	0.0	0.0	0.0	0.026	0.016	
6.0	0.0	0.0	0.0	0.0	0.026	-0.102	
7.0	0.0	0.0	0.0	0.0	0.029	-0.029	
8.0	0.0	0.0	0.0	0.0	0.01	0.268	
9.0	0.0	0.0	0.0	0.0	0.01	-0.032	
10.0	0.0	0.0	0.0	0.0	0.013	-0.093	
11.0	0.0	0.0	0.0	0.0	-0.013	-0.029	
12.0	0.0	0.0	0.0	0.0	-0.013	-0.026	
13.0	0.0	0.0	0.0	0.0	0.0	-0.086	
14.0	0.0	0.0	0.0	0.0	-0.01	-0.182	
15.0	0.0	0.0	0.0	0.0	-0.022	-0.115	
0.0	0.0	0.0	0.0	0.0	-0.006	-0.045	
1.0	0.0	0.0	0.0	0.0	-0.01	-0.188	
2.0	0.0	0.0	0.0	0.0	-0.035	0.086	
3.0	0.0	0.0	0.0	0.0	-0.026	0.243	
4.0	0.0	0.0	0.0	0.0	-0.003	0.243	
5.0	0.0	0.0	0.0	0.0	-0.01	-0.115	
6.0	0.0	0.0	0.0	0.0	0.003	0.048	
7.0	0.0	0.0	0.0	0.0	0.016	0.166	
8.0	0.0	0.0	0.0	0.0	0.022	-0.176	
9.0	0.0	0.0	0.0	0.0	0.022	0.096	
10.0	0.0	0.0	0.0	0.0	0.022	0.073	
11.0	0.0	0.0	0.0	0.0	0.029	-0.096	
12.0	0.0	0.0	0.0	0.0	0.006	-0.067	
13.0	0.0	0.0	0.0	0.0	0.0	-0.105	
14.0	0.0	0.0	0.0	0.0	-0.013	-0.144	
15.0	0.0	0.0	0.0	0.0	-0.016	0.064	
0.0	0.0	0.0	0.0	0.0	-0.003	0.083	
1.0	0.0	0.0	0.0	0.0	0.013	-0.032	
2.0	0.0	0.0	0.0	0.0	0.003	-0.128	
3.0	0.0	0.0	0.0	0.0	-0.006	-0.134	
4.0	0.0	0.0	0.0	0.0	-0.01	-0.121	
5.0	0.0	0.0	0.0	0.0	-0.022	-0.128	
6.0	0.0	0.0	0.0	0.0	-0.035	0.006	
7.0	0.0	0.0	0.0	0.0	-0.032	0.303	
8.0	0.0	0.0	0.0	0.0	-0.006	0.141	
9.0	0.0	0.0	0.0	0.0	0.01	0.07	
10.0	0.0	0.0	0.0	0.0	0.01	0.006	
11.0	0.0	0.0	0.0	0.0	0.016	-0.115	
12.0	0.0	0.0	0.0	0.0	0.016	-0.15	
13.0	0.0	0.0	0.0	0.0	0.022	0.01	
14.0	0.0	0.0	0.0	0.0	0.026	0.182	
15.0	0.0	0.0	0.0	0.0	0.006	-0.045	
0.0	0.0	0.0	0.0	0.0	-0.003	-0.326	
1.0	0.0	0.0	0.0	0.0	0.006	-0.057	
2.0	0.0	0.0	0.0	0.0	0.003	-0.022	
3.0	0.0	0.0	0.0	0.0	0.0	0.035	
4.0	0.0	0.0	0.0	0.0	0.01	0.185	
5.0	0.0	0.0	0.0	0.0	0.013	0.006	
6.0	0.0	0.0	0.0	0.0	0.0	-0.195	
7.0	0.0	0.0	0.0	0.0	-0.013	0.0	
8.0	0.0	0.0	0.0	0.0	-0.013	-0.032	
9.0	0.0	0.0	0.0	0.0	-0.01	0.08	
10.0	0.0	0.0	0.0	0.0	-0.029	0.399	
11.0	0.0	0.0	0.0	0.0	-0.035	-0.067	
12.0	0.0	0.0	0.0	0.0	-0.026	-0.316	
13.0	0.0	0.0	0.0	0.0	0.003	0.093	
14.0	0.0	0.0	0.0	0.0	0.013	-0.169	
15.0	0.0	0.0	0.0	0.0	0.006	-0.022	
0.0	0.0	0.0	0.0	0.0	0.0	-0.026	
1.0	0.0	0.0	0.0	0.0	0.019	-0.003	
2.0	0.0	0.0	0.0	0.0	0.022	-0.109	
3.0	0.0	0.0	0.0	0.0	0.01	-0.093	
4.0	0.0	0.0	0.0	0.0	0.006	-0.064	
5.0	0.0	0.0	0.0	0.0	0.01	-0.045	
6.0	0.0	0.0	0.0	0.0	0.0	0.121	
7.0	0.0	0.0	0.0	0.0	-0.006	0.182	
8.0	0.0	0.0	0.0	0.0	0.006	-0.105	
9.0	0.0	0.0	0.0	0.0	0.01	-0.153	
10.0	0.0	0.0	0.0	0.0	0.0	-0.172	
11.0	0.0	0.0	0.0	0.0	-0.022	-0.15	
12.0	0.0	0.0	0.0	0.0	-0.013	-0.185	
13.0	0.0	0.0	0.0	0.0	-0.006	0.131	
14.0	0.0	0.0	0.0	0.0	-0.022	0.224	
15.0	0.0	0.0	0.0	0.0	-0.016	0.386	
0.0	0.0	0.0	0.0	0.0	0.006	0.252	
1.0	0.0	0.0	0.0	0.0	0.0	-0.153	
2.0	0.0	0.0	0.0	0.0	-0.013	-0.061	
3.0	0.0	0.0	0.0	0.0	0.003	-0.093	
4.0	0.0	0.0	0.0	0.0	0.013	-0.208	
5.0	0.0	0.0	0.0	0.0	0.006	-0.064	
6.0	0.0	0.0	0.0	0.0	0.0	-0.096	
7.0	0.0	0.0	0.0	0.0	0.0	0.045	
8.0	0.0	0.0	0.0	0.0	0.01	-0.118	
9.0	0.0	0.0	0.0	0.0	0.006	-0.134	
10.0	0.0	0.0	0.0	0.0	0.01	0.192	
11.0	0.0	0.0	0.0	0.0	0.013	0.169	
12.0	0.0	0.0	0.0	0.0	0.029	-0.006	
13.0	0.0	0.0	0.0	0.0	0.013	0.003	
14.0	0.0	0.0	0.0	0.0	0.003	-0.048	
15.0	0.0	0.0	0.0	0.0	-0.003	-0.048	
0.0	0.0	0.0	0.0	0.0	-0.006	0.019	
1.0	0.0	0.0	0.0	0.0	-0.026	-0.006	
2.0	0.0	0.0	0.0	0.0	-0.042	-0.032	
3.0	0.0	0.0	0.0	0.0	-0.042	-0.006	
4.0	0.0	0.0	0.0	0.0	-0.013	-0.013	
5.0	0.0	0.0	0.0	0.0	-0.019	0.01	
6.0	0.0	0.0	0.0	0.0	-0.003	0.016	
7.0	0.0	0.0	0.0	0.0	0.003	-0.016	
8.0	0.0	0.0	0.0	0.0	0.01	-0.006	
9.0	0.0	0.0	0.0	0.0	0.016	-0.096	
10.0	0.0	0.0	0.0	0.0	0.019	-0.051	
11.0	0.0	0.0	0.0	0.0	0.016	0.026	
12.0	0.0	0.0	0.0	0.0	0.013	-0.051	
13.0	0.0	0.0	0.0	0.0	0.006	-0.057	
14.0	0.0	0.0	0.0	0.0	0.0	-0.067	
15.0	0.0	0.0	0.0	0.0	0.003	-0.128	
0.0	0.0	0.0	0.0	0.0	0.0	-0.163	
1.0	0.0	0.0	0.0	0.0	0.0	-0.16	
2.0	0.0	0.0	0.0	0.0	0.0	0.029	
3.0	0.0	0.0	0.0	0.0	-0.01	0.278	
4.0	0.0	0.0	0.0	0.0	-0.01	0.201	
5.0	0.0	0.0	0.0	0.0	-0.003	-0.061	
6.0	0.0	0.0	0.0	0.0	-0.019	-0.137	
7.0	0.0	0.0	0.0	0.0	-0.042	0.185	
8.0	0.0	0.0	0.0	0.0	-0.026	0.3	
9.0	0.0	0.0	0.0	0.0	0.006	-0.118	
10.0	0.0	0.0	0.0	0.0	0.022	-0.029	
11.0	0.0	0.0	0.0	0.0	0.022	-0.083	
12.0	0.0	0.0	0.0	0.0	0.01	-0.057	
13.0	0.0	0.0	0.0	0.0	0.022	-0.217	
14.0	0.0	0.0	0.0	0.0	0.016	-0.134	
15.0	0.0	0.0	0.0	0.0	0.006	-0.061	
0.0	0.0	0.0	0.0	0.0	-0.003	0.086	
1.0	0.0	0.0	0.0	0.0	0.0	0.07	
2.0	0.0	0.0	0.0	0.0	-0.006	0.15	
3.0	0.0	0.0	0.0	0.0	0.0	-0.057	
4.0	0.0	0.0	0.0	0.0	-0.003	-0.275	
5.0	0.0	0.0	0.0	0.0	0.003	-0.141	
6.0	0.0	0.0	0.0	0.0	-0.006	-0.31	
7.0	0.0	0.0	0.0	0.0	-0.013	0.112	
8.0	0.0	0.0	0.0	0.0	-0.006	0.265	
9.0	0.0	0.0	0.0	0.0	0.0	-0.016	
10.0	0.0	0.0	0.0	0.0	-0.013	-0.032	
11.0	0.0	0.0	0.0	0.0	-0.006	0.131	
12.0	0.0	0.0	0.0	0.0	-0.013	0.243	
13.0	0.0	0.0	0.0	0.0	0.0	-0.035	
14.0	0.0	0.0	0.0	0.0	0.01	-0.073	
15.0	0.0	0.0	0.0	0.0	0.01	-0.038	
0.0	0.0	0.0	0.0	0.0	0.003	-0.057	
1.0	0.0	0.0	0.0	0.0	0.003	-0.026	
2.0	0.0	0.0	0.0	0.0	0.01	-0.042	
3.0	0.0	0.0	0.0	0.0	0.006	-0.019	
4.0	0.0	0.0	0.0	0.0	0.0	-0.01	
5.0	0.0	0.0	0.0	0.0	0.013	-0.332	
6.0	0.0	0.0	0.0	0.0	0.003	0.016	
7.0	0.0	0.0	0.0	0.0	0.0	0.118	
8.0	0.0	0.0	0.0	0.0	0.01	-0.054	
9.0	0.0	0.0	0.0	0.0	0.013	-0.045	
10.0	0.0	0.0	0.0	0.0	0.006	0.0	
11.0	0.0	0.0	0.0	0.0	-0.003	0.026	
12.0	0.0	0.0	0.0	0.0	-0.01	0.016	
13.0	0.0	0.0	0.0	0.0	-0.035	-0.029	
14.0	0.0	0.0	0.0	0.0	-0.048	-0.073	
15.0	0.0	0.0	0.0	0.0	-0.038	-0.042	
0.0	0.0	0.0	0.0	0.0	-0.013	-0.022	
1.0	0.0	0.0	0.0	0.0	-0.003	-0.029	
2.0	0.0	0.0	0.0	0.0	0.022	0.182	
3.0	0.0	0.0	0.0	0.0	0.019	0.067	
4.0	0.0	0.0	0.0	0.0	0.026	-0.096	
5.0	0.0	0.0	0.0	0.0	0.019	-0.096	
6.0	0.0	0.0	0.0	0.0	0.01	-0.051	
7.0	0.0	0.0	0.0	0.0	0.003	0.057	
8.0	0.0	0.0	0.0	0.0	0.0	0.019	
9.0	0.0	0.0	0.0	0.0	0.0	0.006	
10.0	0.0	0.0	0.0	0.0	0.0	-0.057	
11.0	0.0	0.0	0.0	0.0	-0.003	-0.086	
12.0	0.0	0.0	0.0	0.0	0.006	0.026	
13.0	0.0	0.0	0.0	0.0	0.019	0.013	
14.0	0.0	0.0	0.0	0.0	0.0	-0.051	
15.0	0.0	0.0	0.0	0.0	-0.013	-0.016	
0.0	0.0	0.0	0.0	0.0	-0.013	-0.032	
1.0	0.0	0.0	0.0	0.0	-0.022	-0.038	
2.0	0.0	0.0	0.0	0.0	-0.038	0.019	
3.0	0.0	0.0	0.0	0.0	-0.026	0.048	
4.0	0.0	0.0	0.0	0.0	-0.013	-0.006	
5.0	0.0	0.0	0.0	0.0	-0.006	-0.035	
6.0	0.0	0.0	0.0	0.0	0.006	-0.086	
7.0	0.0	0.0	0.0	0.0	0.019	-0.093	
8.0	0.0	0.0	0.0	0.0	0.022	0.096	
9.0	0.0	0.0	0.0	0.0	0.003	0.559	
10.0	0.0	0.0	0.0	0.0	0.0	-0.217	
11.0	0.0	0.0	0.0	0.0	0.01	-0.351	
12.0	0.0	0.0	0.0	0.0	0.013	-0.089	
13.0	0.0	0.0	0.0	0.0	0.01	-0.067	
14.0	0.0	0.0	0.0	0.0	0.013	0.061	
15.0	0.0	0.0	0.0	0.0	0.022	0.057	
0.0	0.0	0.0	0.0	0.0	0.016	0.07	
1.0	0.0	0.0	0.0	0.0	0.019	-0.019	
2.0	0.0	0.0	0.0	0.0	-0.003	-0.054	
3.0	0.0	0.0	0.0	0.0	-0.013	-0.105	
4.0	0.0	0.0	0.0	0.0	-0.003	-0.125	
5.0	0.0	0.0	0.0	0.0	-0.022	-0.042	
6.0	0.0	0.0	0.0	0.0	-0.042	0.093	
7.0	0.0	0.0	0.0	0.0	-0.026	0.019	
8.0	0.0	0.0	0.0	0.0	-0.006	0.038	
9.0	0.0	0.0	0.0	0.0	-0.01	0.026	
10.0	0.0	0.0	0.0	0.0	0.0	-0.051	
11.0	0.0	0.0	0.0	0.0	0.01	-0.038	
12.0	0.0	0.0	0.0	0.0	0.01	-0.188	
13.0	0.0	0.0	0.0	0.0	0.016	-0.118	
14.0	0.0	0.0	0.0	0.0	0.01	-0.013	
15.0	0.0	0.0	0.0	0.0	-0.003	-0.109	
0.0	0.0	0.0	0.0	0.0	0.016	-0.054	
1.0	0.0	0.0	0.0	0.0	0.003	-0.029	
2.0	0.0	0.0	0.0	0.0	0.003	0.061	
3.0	0.0	0.0	0.0	0.0	0.003	0.201	
4.0	0.0	0.0	0.0	0.0	0.022	0.163	
5.0	0.0	0.0	0.0	0.0	0.003	0.006	
6.0	0.0	0.0	0.0	0.0	-0.006	-0.064	
7.0	0.0	0.0	0.0	0.0	-0.016	-0.051	
8.0	0.0	0.0	0.0	0.0	-0.003	-0.013	
9.0	0.0	0.0	0.0	0.0	-0.013	-0.204	
10.0	0.0	0.0	0.0	0.0	-0.029	-0.313	
11.0	0.0	0.0	0.0	0.0	-0.051	0.533	
12.0	0.0	0.0	0.0	0.0	-0.026	0.323	
13.0	0.0	0.0	0.0	0.0	-0.006	-0.256	
14.0	0.0	0.0	0.0	0.0	0.006	-0.141	
15.0	0.0	0.0	0.0	0.0	0.022	-0.029	
0.0	0.0	0.0	0.0	0.0	0.038	-0.064	
1.0	0.0	0.0	0.0	0.0	0.035	-0.134	
2.0	0.0	0.0	0.0	0.0	0.019	-0.064	
3.0	0.0	0.0	0.0	0.0	0.003	0.096	
4.0	0.0	0.0	0.0	0.0	0.006	0.026	
5.0	0.0	0.0	0.0	0.0	0.01	0.029	
6.0	0.0	0.0	0.0	0.0	-0.013	0.01	
7.0	0.0	0.0	0.0	0.0	-0.006	-0.016	
8.0	0.0	0.0	0.0	0.0	0.01	-0.048	
9.0	0.0	0.0	0.0	0.0	0.003	-0.07	
10.0	0.0	0.0	0.0	0.0	-0.006	-0.093	
11.0	0.0	0.0	0.0	0.0	-0.013	-0.089	
12.0	0.0	0.0	0.0	0.0	-0.006	-0.026	
13.0	0.0	0.0	0.0	0.0	-0.026	0.006	
14.0	0.0	0.0	0.0	0.0	-0.042	0.01	
15.0	0.0	0.0	0.0	0.0	-0.029	0.163	
0.0	0.0	0.0	0.0	0.0	-0.006	0.029	
1.0	0.0	0.0	0.0	0.0	0.0	-0.083	
2.0	0.0	0.0	0.0	0.0	0.003	-0.026	
3.0	0.0	0.0	0.0	0.0	0.019	0.0	
4.0	0.0	0.0	0.0	0.0	0.003	0.179	
5.0	0.0	0.0	0.0	0.0	0.013	0.109	
6.0	0.0	0.0	0.0	0.0	0.019	-0.329	
7.0	0.0	0.0	0.0	0.0	0.026	0.077	
8.0	0.0	0.0	0.0	0.0	0.016	0.198	
9.0	0.0	0.0	0.0	0.0	-0.003	-0.089	
10.0	0.0	0.0	0.0	0.0	0.0	-0.23	
11.0	0.0	0.0	0.0	0.0	0.0	-0.211	
12.0	0.0	0.0	0.0	0.0	0.006	-0.144	
13.0	0.0	0.0	0.0	0.0	0.0	-0.093	
14.0	0.0	0.0	0.0	0.0	-0.013	0.003	
15.0	0.0	0.0	0.0	0.0	-0.003	0.07	
0.0	0.0	0.0	0.0	0.0	0.0	0.182	
1.0	0.0	0.0	0.0	0.0	-0.01	-0.016	
2.0	0.0	0.0	0.0	0.0	-0.026	0.01	
3.0	0.0	0.0	0.0	0.0	-0.035	-0.064	
4.0	0.0	0.0	0.0	0.0	-0.016	0.006	
5.0	0.0	0.0	0.0	0.0	-0.013	0.102	
6.0	0.0	0.0	0.0	0.0	-0.013	0.029	
7.0	0.0	0.0	0.0	0.0	0.019	-0.112	
8.0	0.0	0.0	0.0	0.0	0.022	-0.089	
9.0	0.0	0.0	0.0	0.0	0.019	0.07	
10.0	0.0	0.0	0.0	0.0	0.006	0.032	
11.0	0.0	0.0	0.0	0.0	0.016	-0.147	
12.0	0.0	0.0	0.0	0.0	0.019	-0.128	
13.0	0.0	0.0	0.0	0.0	0.016	0.345	
14.0	0.0	0.0	0.0	0.0	0.019	0.16	
15.0	0.0	0.0	0.0	0.0	0.019	-0.064	
0.0	0.0	0.0	0.0	0.0	0.01	-0.291	
1.0	0.0	0.0	0.0	0.0	-0.003	-0.112	
2.0	0.0	0.0	0.0	0.0	-0.032	0.0	
3.0	0.0	0.0	0.0	0.0	-0.016	0.013	
4.0	0.0	0.0	0.0	0.0	0.0	-0.195	
5.0	0.0	0.0	0.0	0.0	-0.006	0.208	
6.0	0.0	0.0	0.0	0.0	-0.051	0.252	
7.0	0.0	0.0	0.0	0.0	-0.045	0.042	
8.0	0.0	0.0	0.0	0.0	-0.022	-0.105	
9.0	0.0	0.0	0.0	0.0	-0.01	-0.153	
10.0	0.0	0.0	0.0	0.0	-0.01	-0.016	
11.0	0.0	0.0	0.0	0.0	0.013	0.013	
12.0	0.0	0.0	0.0	0.0	0.022	-0.061	
13.0	0.0	0.0	0.0	0.0	0.032	-0.137	
14.0	0.0	0.0	0.0	0.0	0.022	-0.141	
15.0	0.0	0.0	0.0	0.0	0.013	0.051	
0.0	0.0	0.0	0.0	0.0	0.013	0.013	
1.0	0.0	0.0	0.0	0.0	0.01	0.147	
2.0	0.0	0.0	0.0	0.0	0.003	-0.038	
3.0	0.0	0.0	0.0	0.0	-0.006	0.01	
4.0	0.0	0.0	0.0	0.0	0.0	-0.051	
5.0	0.0	0.0	0.0	0.0	0.0	0.022	
6.0	0.0	0.0	0.0	0.0	-0.016	0.029	
7.0	0.0	0.0	0.0	0.0	-0.013	0.0	
8.0	0.0	0.0	0.0	0.0	0.01	-0.029	
9.0	0.0	0.0	0.0	0.0	-0.013	0.032	
10.0	0.0	0.0	0.0	0.0	-0.022	-0.013	
11.0	0.0	0.0	0.0	0.0	-0.019	0.019	
12.0	0.0	0.0	0.0	0.0	-0.022	-0.01	
13.0	0.0	0.0	0.0	0.0	-0.006	-0.077	
14.0	0.0	0.0	0.0	0.0	0.003	-0.038	
15.0	0.0	0.0	0.0	0.0	0.01	-0.141	
0.0	0.0	0.0	0.0	0.0	0.022	-0.278	
1.0	0.0	0.0	0.0	0.0	0.016	-0.003	
2.0	0.0	0.0	0.0	0.0	0.016	0.172	
3.0	0.0	0.0	0.0	0.0	0.013	-0.131	
4.0	0.0	0.0	0.0	0.0	0.003	0.01	
5.0	0.0	0.0	0.0	0.0	0.006	0.131	
6.0	0.0	0.0	0.0	0.0	-0.003	0.125	
7.0	0.0	0.0	0.0	0.0	0.01	-0.032	
8.0	0.0	0.0	0.0	0.0	0.019	-0.057	
9.0	0.0	0.0	0.0	0.0	0.01	-0.022	
10.0	0.0	0.0	0.0	0.0	0.0	-0.073	
11.0	0.0	0.0	0.0	0.0	-0.019	-0.051	
12.0	0.0	0.0	0.0	0.0	-0.013	-0.035	
13.0	0.0	0.0	0.0	0.0	-0.029	0.0	
14.0	0.0	0.0	0.0	0.0	-0.042	0.038	
15.0	0.0	0.0	0.0	0.0	-0.038	0.022	
0.0	0.0	0.0	0.0	0.0	-0.022	-0.105	
1.0	0.0	0.0	0.0	0.0	0.006	-0.089	
2.0	0.0	0.0	0.0	0.0	0.016	-0.192	
3.0	0.0	0.0	0.0	0.0	0.016	-0.121	
4.0	0.0	0.0	0.0	0.0	0.019	-0.051	
5.0	0.0	0.0	0.0	0.0	0.022	0.182	
6.0	0.0	0.0	0.0	0.0	0.01	0.141	
7.0	0.0	0.0	0.0	0.0	0.019	0.035	
8.0	0.0	0.0	0.0	0.0	0.016	0.105	
9.0	0.0	0.0	0.0	0.0	0.006	0.323	
10.0	0.0	0.0	0.0	0.0	0.006	0.0	
11.0	0.0	0.0	0.0	0.0	0.01	-0.112	
12.0	0.0	0.0	0.0	0.0	0.006	-0.246	
13.0	0.0	0.0	0.0	0.0	-0.003	-0.281	
14.0	0.0	0.0	0.0	0.0	0.0	-0.093	
15.0	0.0	0.0	0.0	0.0	-0.013	0.141	
0.0	0.0	0.0	0.0	0.0	-0.016	0.006	
1.0	0.0	0.0	0.0	0.0	-0.016	-0.086	
2.0	0.0	0.0	0.0	0.0	-0.038	-0.006	
3.0	0.0	0.0	0.0	0.0	-0.029	0.006	
4.0	0.0	0.0	0.0	0.0	-0.016	0.038	
5.0	0.0	0.0	0.0	0.0	-0.006	0.125	
6.0	0.0	0.0	0.0	0.0	0.01	0.032	
7.0	0.0	0.0	0.0	0.0	0.019	-0.061	
8.0	0.0	0.0	0.0	0.0	0.022	-0.035	
9.0	0.0	0.0	0.0	0.0	0.016	-0.013	
10.0	0.0	0.0	0.0	0.0	0.006	-0.022	
11.0	0.0	0.0	0.0	0.0	0.01	-0.016	
12.0	0.0	0.0	0.0	0.0	0.019	-0.042	
13.0	0.0	0.0	0.0	0.0	0.003	-0.026	
14.0	0.0	0.0	0.0	0.0	-0.003	-0.013	
15.0	0.0	0.0	0.0	0.0	0.0	-0.013	
0.0	0.0	0.0	0.0	0.0	0.016	-0.061	
1.0	0.0	0.0	0.0	0.0	0.0	-0.089	
2.0	0.0	0.0	0.0	0.0	-0.013	-0.217	
3.0	0.0	0.0	0.0	0.0	-0.016	-0.144	
4.0	0.0	0.0	0.0	0.0	0.003	-0.032	
5.0	0.0	0.0	0.0	0.0	-0.003	-0.01	
6.0	0.0	0.0	0.0	0.0	-0.026	0.147	
7.0	0.0	0.0	0.0	0.0	-0.022	0.214	
8.0	0.0	0.0	0.0	0.0	-0.029	0.067	
9.0	0.0	0.0	0.0	0.0	-0.006	0.029	
10.0	0.0	0.0	0.0	0.0	-0.006	0.15	
11.0	0.0	0.0	0.0	0.0	0.0	0.003	
12.0	0.0	0.0	0.0	0.0	0.016	-0.057	
13.0	0.0	0.0	0.0	0.0	0.019	-0.054	
14.0	0.0	0.0	0.0	0.0	0.013	-0.057	
15.0	0.0	0.0	0.0	0.0	0.019	-0.057	
0.0	0.0	0.0	0.0	0.0	0.013	-0.054	
1.0	0.0	0.0	0.0	0.0	0.006	-0.045	
2.0	0.0	0.0	0.0	0.0	-0.003	-0.038	
3.0	0.0	0.0	0.0	0.0	-0.003	0.0	
4.0	0.0	0.0	0.0	0.0	0.0	-0.077	
5.0	0.0	0.0	0.0	0.0	0.0	-0.093	
6.0	0.0	0.0	0.0	0.0	-0.016	-0.093	
7.0	0.0	0.0	0.0	0.0	-0.019	-0.201	
8.0	0.0	0.0	0.0	0.0	-0.013	0.019	
9.0	0.0	0.0	0.0	0.0	-0.013	0.294	
10.0	0.0	0.0	0.0	0.0	-0.016	-0.032	
11.0	0.0	0.0	0.0	0.0	-0.006	-0.016	
12.0	0.0	0.0	0.0	0.0	-0.01	0.051	
13.0	0.0	0.0	0.0	0.0	0.003	0.035	
14.0	0.0	0.0	0.0	0.0	0.01	-0.013	
15.0	0.0	0.0	0.0	0.0	0.016	-0.029	
0.0	0.0	0.0	0.0	0.0	0.013	-0.057	
1.0	0.0	0.0	0.0	0.0	0.01	0.006	
2.0	0.0	0.0	0.0	0.0	0.013	-0.016	
3.0	0.0	0.0	0.0	0.0	0.013	-0.048	
4.0	0.0	0.0	0.0	0.0	0.006	-0.032	
5.0	0.0	0.0	0.0	0.0	0.006	-0.029	
6.0	0.0	0.0	0.0	0.0	-0.006	0.006	
7.0	0.0	0.0	0.0	0.0	-0.016	0.003	
8.0	0.0	0.0	0.0	0.0	0.0	-0.102	
9.0	0.0	0.0	0.0	0.0	0.0	-0.192	
10.0	0.0	0.0	0.0	0.0	-0.003	-0.179	
11.0	0.0	0.0	0.0	0.0	-0.003	-0.208	
12.0	0.0	0.0	0.0	0.0	0.0	0.019	
13.0	0.0	0.0	0.0	0.0	-0.029	0.514	
14.0	0.0	0.0	0.0	0.0	-0.032	0.262	
15.0	0.0	0.0	0.0	0.0	-0.01	-0.121	
0.0	0.0	0.0	0.0	0.0	0.0	-0.08	
1.0	0.0	0.0	0.0	0.0	0.0	0.086	
2.0	0.0	0.0	0.0	0.0	0.013	0.102	
3.0	0.0	0.0	0.0	0.0	0.019	-0.153	
4.0	0.0	0.0	0.0	0.0	0.006	-0.16	
5.0	0.0	0.0	0.0	0.0	0.01	-0.019	
6.0	0.0	0.0	0.0	0.0	0.0	-0.006	
7.0	0.0	0.0	0.0	0.0	0.006	-0.019	
8.0	0.0	0.0	0.0	0.0	0.006	-0.016	
9.0	0.0	0.0	0.0	0.0	0.006	-0.006	
10.0	0.0	0.0	0.0	0.0	0.0	-0.013	
11.0	0.0	0.0	0.0	0.0	0.003	-0.019	
12.0	0.0	0.0	0.0	0.0	0.0	-0.083	
13.0	0.0	0.0	0.0	0.0	0.003	-0.086	
14.0	0.0	0.0	0.0	0.0	0.0	-0.057	
15.0	0.0	0.0	0.0	0.0	-0.006	-0.048	
0.0	0.0	0.0	0.0	0.0	-0.006	0.083	
1.0	0.0	0.0	0.0	0.0	-0.026	0.134	
2.0	0.0	0.0	0.0	0.0	-0.029	-0.07	
3.0	0.0	0.0	0.0	0.0	-0.016	-0.038	
4.0	0.0	0.0	0.0	0.0	0.0	0.022	
5.0	0.0	0.0	0.0	0.0	0.01	-0.013	
6.0	0.0	0.0	0.0	0.0	0.016	0.003	
7.0	0.0	0.0	0.0	0.0	0.01	0.054	
8.0	0.0	0.0	0.0	0.0	0.01	-0.252	
9.0	0.0	0.0	0.0	0.0	0.006	0.073	
10.0	0.0	0.0	0.0	0.0	0.019	0.086	
11.0	0.0	0.0	0.0	0.0	0.013	-0.057	
12.0	0.0	0.0	0.0	0.0	0.006	0.096	
13.0	0.0	0.0	0.0	0.0	-0.006	-0.096	
14.0	0.0	0.0	0.0	0.0	-0.003	-0.042	
15.0	0.0	0.0	0.0	0.0	-0.01	-0.013	
0.0	0.0	0.0	0.0	0.0	0.0	-0.067	
1.0	0.0	0.0	0.0	0.0	0.003	-0.141	
2.0	0.0	0.0	0.0	0.0	-0.006	-0.166	
3.0	0.0	0.0	0.0	0.0	-0.006	-0.045	
4.0	0.0	0.0	0.0	0.0	0.013	0.038	
5.0	0.0	0.0	0.0	0.0	-0.013	0.201	
6.0	0.0	0.0	0.0	0.0	-0.019	0.128	
7.0	0.0	0.0	0.0	0.0	-0.016	0.038	
8.0	0.0	0.0	0.0	0.0	0.003	0.01	
9.0	0.0	0.0	0.0	0.0	0.006	-0.003	
10.0	0.0	0.0	0.0	0.0	0.003	-0.01	
11.0	0.0	0.0	0.0	0.0	0.01	-0.019	
12.0	0.0	0.0	0.0	0.0	0.0	-0.022	
13.0	0.0	0.0	0.0	0.0	0.006	-0.022	
14.0	0.0	0.0	0.0	0.0	0.01	-0.042	
15.0	0.0	0.0	0.0	0.0	0.029	-0.042	
0.0	0.0	0.0	0.0	0.0	0.029	-0.029	
1.0	0.0	0.0	0.0	0.0	0.006	-0.026	
2.0	0.0	0.0	0.0	0.0	-0.003	-0.026	
3.0	0.0	0.0	0.0	0.0	-0.003	-0.026	
4.0	0.0	0.0	0.0	0.0	0.003	-0.045	
5.0	0.0	0.0	0.0	0.0	0.0	-0.064	
6.0	0.0	0.0	0.0	0.0	-0.01	-0.051	
7.0	0.0	0.0	0.0	0.0	-0.022	-0.022	
8.0	0.0	0.0	0.0	0.0	-0.022	-0.029	
9.0	0.0	0.0	0.0	0.0	-0.029	-0.016	
10.0	0.0	0.0	0.0	0.0	-0.045	0.022	
11.0	0.0	0.0	0.0	0.0	-0.038	0.029	
12.0	0.0	0.0	0.0	0.0	-0.016	0.032	
13.0	0.0	0.0	0.0	0.0	-0.003	0.006	
14.0	0.0	0.0	0.0	0.0	-0.003	-0.003	
15.0	0.0	0.0	0.0	0.0	0.003	-0.042	
0.0	0.0	0.0	0.0	0.0	0.006	-0.089	
1.0	0.0	0.0	0.0	0.0	0.013	-0.003	
2.0	0.0	0.0	0.0	0.0	0.013	-0.038	
3.0	0.0	0.0	0.0	0.0	0.013	-0.032	
4.0	0.0	0.0	0.0	0.0	0.01	-0.013	
5.0	0.0	0.0	0.0	0.0	-0.006	-0.026	
6.0	0.0	0.0	0.0	0.0	0.0	-0.054	
7.0	0.0	0.0	0.0	0.0	0.019	0.118	
8.0	0.0	0.0	0.0	0.0	0.022	-0.029	
9.0	0.0	0.0	0.0	0.0	0.013	-0.08	
10.0	0.0	0.0	0.0	0.0	-0.016	-0.038	
11.0	0.0	0.0	0.0	0.0	-0.01	-0.083	
12.0	0.0	0.0	0.0	0.0	0.006	-0.057	
13.0	0.0	0.0	0.0	0.0	-0.029	0.109	
14.0	0.0	0.0	0.0	0.0	-0.026	0.089	
15.0	0.0	0.0	0.0	0.0	-0.013	0.026	
0.0	0.0	0.0	0.0	0.0	-0.013	-0.166	
1.0	0.0	0.0	0.0	0.0	-0.013	-0.246	
2.0	0.0	0.0	0.0	0.0	0.003	-0.086	
3.0	0.0	0.0	0.0	0.0	0.032	-0.22	
4.0	0.0	0.0	0.0	0.0	0.029	0.511	
5.0	0.0	0.0	0.0	0.0	0.051	0.22	
6.0	0.0	0.0	0.0	0.0	0.032	0.176	
7.0	0.0	0.0	0.0	0.0	0.026	0.01	
8.0	0.0	0.0	0.0	0.0	0.019	-0.089	
9.0	0.0	0.0	0.0	0.0	0.003	-0.073	
10.0	0.0	0.0	0.0	0.0	-0.01	-0.057	
11.0	0.0	0.0	0.0	0.0	-0.006	-0.054	
12.0	0.0	0.0	0.0	0.0	0.006	-0.077	
13.0	0.0	0.0	0.0	0.0	-0.003	-0.089	
14.0	0.0	0.0	0.0	0.0	-0.016	-0.057	
15.0	0.0	0.0	0.0	0.0	-0.016	-0.026	
0.0	0.0	0.0	0.0	0.0	-0.006	-0.029	
1.0	0.0	0.0	0.0	0.0	-0.019	-0.01	
2.0	0.0	0.0	0.0	0.0	-0.035	0.026	
3.0	0.0	0.0	0.0	0.0	-0.029	-0.016	
4.0	0.0	0.0	0.0	0.0	-0.01	0.0	
5.0	0.0	0.0	0.0	0.0	-0.006	-0.006	
6.0	0.0	0.0	0.0	0.0	0.016	-0.016	
7.0	0.0	0.0	0.0	0.0	0.016	-0.016	
8.0	0.0	0.0	0.0	0.0	0.019	0.0	
9.0	0.0	0.0	0.0	0.0	0.019	0.006	
10.0	0.0	0.0	0.0	0.0	0.013	-0.01	
11.0	0.0	0.0	0.0	0.0	0.01	-0.016	
12.0	0.0	0.0	0.0	0.0	0.026	-0.022	
13.0	0.0	0.0	0.0	0.0	0.038	-0.026	
14.0	0.0	0.0	0.0	0.0	0.042	-0.026	
15.0	0.0	0.0	0.0	0.0	0.045	-0.026	
0.0	0.0	0.0	0.0	0.0	0.057	-0.045	
1.0	0.0	0.0	0.0	0.0	0.0	-0.048	
2.0	0.0	0.0	0.0	0.0	-0.057	-0.045	
3.0	0.0	0.0	0.0	0.0	-0.086	-0.022	
4.0	0.0	0.0	0.0	0.0	-0.109	-0.026	
5.0	0.0	0.0	0.0	0.0	-0.109	-0.006	
6.0	0.0	0.0	0.0	0.0	-0.093	0.019	
7.0	0.0	0.0	0.0	0.0	-0.029	0.032	
8.0	0.0	0.0	0.0	0.0	0.019	0.035	
9.0	0.0	0.0	0.0	0.0	0.035	0.019	
10.0	0.0	0.0	0.0	0.0	0.061	-0.016	
11.0	0.0	0.0	0.0	0.0	0.15	-0.032	
12.0	0.0	0.0	0.0	0.0	0.144	-0.038	
13.0	0.0	0.0	0.0	0.0	0.077	-0.029	
14.0	0.0	0.0	0.0	0.0	-0.003	-0.038	
15.0	0.0	0.0	0.0	0.0	-0.067	-0.038	
0.0	0.0	0.0	0.0	0.0	-0.115	-0.029	
1.0	0.0	0.0	0.0	0.0	-0.099	-0.022	
2.0	0.0	0.0	0.0	0.0	-0.08	-0.026	
3.0	0.0	0.0	0.0	0.0	-0.026	-0.01	
4.0	0.0	0.0	0.0	0.0	0.029	-0.048	
5.0	0.0	0.0	0.0	0.0	0.032	-0.057	
6.0	0.0	0.0	0.0	0.0	0.019	-0.042	
7.0	0.0	0.0	0.0	0.0	0.016	-0.026	
8.0	0.0	0.0	0.0	0.0	0.01	-0.029	
9.0	0.0	0.0	0.0	0.0	-0.016	-0.01	
10.0	0.0	0.0	0.0	0.0	-0.048	0.029	
11.0	0.0	0.0	0.0	0.0	-0.061	0.035	
12.0	0.0	0.0	0.0	0.0	-0.032	0.032	
13.0	0.0	0.0	0.0	0.0	0.01	0.013	
14.0	0.0	0.0	0.0	0.0	0.064	-0.003	
15.0	0.0	0.0	0.0	0.0	0.105	-0.006	
0.0	0.0	0.0	0.0	0.0	0.08	-0.016	
1.0	0.0	0.0	0.0	0.0	0.029	-0.013	
2.0	0.0	0.0	0.0	0.0	0.006	-0.016	
3.0	0.0	0.0	0.0	0.0	-0.006	-0.038	
4.0	0.0	0.0	0.0	0.0	-0.038	-0.019	
5.0	0.0	0.0	0.0	0.0	-0.019	-0.016	
6.0	0.0	0.0	0.0	0.0	-0.042	-0.026	
7.0	0.0	0.0	0.0	0.0	-0.013	-0.013	
8.0	0.0	0.0	0.0	0.0	0.035	-0.035	
9.0	0.0	0.0	0.0	0.0	0.057	-0.038	
10.0	0.0	0.0	0.0	0.0	0.115	-0.029	
11.0	0.0	0.0	0.0	0.0	0.077	-0.013	
12.0	0.0	0.0	0.0	0.0	0.013	-0.019	
13.0	0.0	0.0	0.0	0.0	-0.061	-0.003	
14.0	0.0	0.0	0.0	0.0	-0.144	0.026	
15.0	0.0	0.0	0.0	0.0	-0.112	0.019	
0.0	0.0	0.0	0.0	0.0	-0.035	0.006	
1.0	0.0	0.0	0.0	0.0	-0.051	0.0	
2.0	0.0	0.0	0.0	0.0	-0.105	-0.01	
3.0	0.0	0.0	0.0	0.0	-0.157	-0.013	
4.0	0.0	0.0	0.0	0.0	-0.157	-0.029	
5.0	0.0	0.0	0.0	0.0	-0.118	-0.029	
6.0	0.0	0.0	0.0	0.0	-0.035	-0.038	
7.0	0.0	0.0	0.0	0.0	0.054	-0.051	
8.0	0.0	0.0	0.0	0.0	0.099	-0.042	
9.0	0.0	0.0	0.0	0.0	0.141	-0.032	
10.0	0.0	0.0	0.0	0.0	0.179	-0.026	
11.0	0.0	0.0	0.0	0.0	0.169	-0.029	
12.0	0.0	0.0	0.0	0.0	0.118	-0.045	
13.0	0.0	0.0	0.0	0.0	0.048	-0.057	
14.0	0.0	0.0	0.0	0.0	-0.016	-0.054	
15.0	0.0	0.0	0.0	0.0	-0.022	-0.029	
0.0	0.0	0.0	0.0	0.0	-0.035	-0.013	
1.0	0.0	0.0	0.0	0.0	-0.042	0.013	
2.0	0.0	0.0	0.0	0.0	-0.048	0.054	
3.0	0.0	0.0	0.0	0.0	-0.048	0.051	
4.0	0.0	0.0	0.0	0.0	0.128	0.035	
5.0	0.0	0.0	0.0	0.0	0.185	0.019	
6.0	0.0	0.0	0.0	0.0	0.061	-0.013	
7.0	0.0	0.0	0.0	0.0	-0.022	-0.016	
8.0	0.0	0.0	0.0	0.0	-0.054	-0.013	
9.0	0.0	0.0	0.0	0.0	-0.08	0.0	
10.0	0.0	0.0	0.0	0.0	-0.102	-0.003	
11.0	0.0	0.0	0.0	0.0	-0.089	-0.013	
12.0	0.0	0.0	0.0	0.0	-0.048	-0.013	
13.0	0.0	0.0	0.0	0.0	0.013	-0.022	
14.0	0.0	0.0	0.0	0.0	0.038	-0.019	
15.0	0.0	0.0	0.0	0.0	0.042	-0.035	
0.0	0.0	0.0	0.0	0.0	0.022	-0.048	
1.0	0.0	0.0	0.0	0.0	-0.013	-0.051	
2.0	0.0	0.0	0.0	0.0	-0.061	-0.042	
3.0	0.0	0.0	0.0	0.0	-0.057	-0.026	
4.0	0.0	0.0	0.0	0.0	0.0	-0.026	
5.0	0.0	0.0	0.0	0.0	0.048	-0.01	
6.0	0.0	0.0	0.0	0.0	-0.013	0.029	
7.0	0.0	0.0	0.0	0.0	0.089	0.029	
8.0	0.0	0.0	0.0	0.0	0.259	0.022	
9.0	0.0	0.0	0.0	0.0	0.182	0.01	
10.0	0.0	0.0	0.0	0.0	0.077	0.0	
11.0	0.0	0.0	0.0	0.0	-0.038	0.01	
12.0	0.0	0.0	0.0	0.0	-0.125	-0.013	
13.0	0.0	0.0	0.0	0.0	-0.15	-0.013	
14.0	0.0	0.0	0.0	0.0	-0.169	-0.029	
15.0	0.0	0.0	0.0	0.0	-0.121	-0.042	
0.0	0.0	0.0	0.0	0.0	-0.045	-0.035	
1.0	0.0	0.0	0.0	0.0	-0.131	-0.032	
2.0	0.0	0.0	0.0	0.0	-0.147	-0.029	
3.0	0.0	0.0	0.0	0.0	-0.134	-0.026	
4.0	0.0	0.0	0.0	0.0	-0.08	-0.042	
5.0	0.0	0.0	0.0	0.0	-0.022	-0.038	
6.0	0.0	0.0	0.0	0.0	0.019	-0.038	
7.0	0.0	0.0	0.0	0.0	0.042	-0.029	
8.0	0.0	0.0	0.0	0.0	0.083	-0.038	
9.0	0.0	0.0	0.0	0.0	0.089	-0.019	
10.0	0.0	0.0	0.0	0.0	0.077	0.01	
11.0	0.0	0.0	0.0	0.0	0.083	0.003	
12.0	0.0	0.0	0.0	0.0	0.061	0.01	
13.0	0.0	0.0	0.0	0.0	0.051	-0.038	
14.0	0.0	0.0	0.0	0.0	0.029	-0.048	
15.0	0.0	0.0	0.0	0.0	0.016	-0.003	
0.0	0.0	0.0	0.0	0.0	0.016	-0.003	
1.0	0.0	0.0	0.0	0.0	0.029	0.0	
2.0	0.0	0.0	0.0	0.0	0.01	-0.013	
3.0	0.0	0.0	0.0	0.0	0.0	-0.016	
4.0	0.0	0.0	0.0	0.0	0.0	-0.003	
5.0	0.0	0.0	0.0	0.0	-0.003	0.003	
6.0	0.0	0.0	0.0	0.0	0.045	-0.01	
7.0	0.0	0.0	0.0	0.0	0.125	-0.022	
8.0	0.0	0.0	0.0	0.0	0.169	-0.026	
9.0	0.0	0.0	0.0	0.0	0.176	-0.035	
10.0	0.0	0.0	0.0	0.0	0.057	-0.032	
11.0	0.0	0.0	0.0	0.0	-0.006	-0.029	
12.0	0.0	0.0	0.0	0.0	-0.01	-0.022	
13.0	0.0	0.0	0.0	0.0	-0.102	0.0	
14.0	0.0	0.0	0.0	0.0	-0.243	0.042	
15.0	0.0	0.0	0.0	0.0	-0.249	0.038	
0.0	0.0	0.0	0.0	0.0	-0.195	0.026	
1.0	0.0	0.0	0.0	0.0	-0.128	0.019	
2.0	0.0	0.0	0.0	0.0	-0.042	0.003	
3.0	0.0	0.0	0.0	0.0	0.029	-0.006	
4.0	0.0	0.0	0.0	0.0	0.08	-0.006	
5.0	0.0	0.0	0.0	0.0	0.064	-0.003	
6.0	0.0	0.0	0.0	0.0	0.01	-0.022	
7.0	0.0	0.0	0.0	0.0	-0.038	-0.038	
8.0	0.0	0.0	0.0	0.0	-0.051	-0.035	
9.0	0.0	0.0	0.0	0.0	-0.032	-0.032	
10.0	0.0	0.0	0.0	0.0	-0.016	-0.045	
11.0	0.0	0.0	0.0	0.0	0.016	-0.051	
12.0	0.0	0.0	0.0	0.0	0.057	-0.067	
13.0	0.0	0.0	0.0	0.0	0.086	-0.064	
14.0	0.0	0.0	0.0	0.0	0.099	-0.054	
15.0	0.0	0.0	0.0	0.0	0.07	-0.026	
0.0	0.0	0.0	0.0	0.0	0.035	-0.026	
1.0	0.0	0.0	0.0	0.0	-0.035	-0.01	
2.0	0.0	0.0	0.0	0.0	-0.073	0.022	
3.0	0.0	0.0	0.0	0.0	-0.054	0.026	
4.0	0.0	0.0	0.0	0.0	-0.032	0.022	
5.0	0.0	0.0	0.0	0.0	0.01	0.019	
6.0	0.0	0.0	0.0	0.0	0.051	0.013	
7.0	0.0	0.0	0.0	0.0	0.07	0.01	
8.0	0.0	0.0	0.0	0.0	0.089	0.013	
9.0	0.0	0.0	0.0	0.0	0.102	0.006	
10.0	0.0	0.0	0.0	0.0	0.032	-0.013	
11.0	0.0	0.0	0.0	0.0	-0.064	-0.022	
12.0	0.0	0.0	0.0	0.0	-0.115	-0.016	
13.0	0.0	0.0	0.0	0.0	-0.086	-0.026	
14.0	0.0	0.0	0.0	0.0	-0.035	-0.038	
15.0	0.0	0.0	0.0	0.0	-0.01	-0.045	
0.0	0.0	0.0	0.0	0.0	-0.003	-0.061	
1.0	0.0	0.0	0.0	0.0	0.01	-0.054	
2.0	0.0	0.0	0.0	0.0	0.032	-0.038	
3.0	0.0	0.0	0.0	0.0	0.057	-0.022	
4.0	0.0	0.0	0.0	0.0	0.042	-0.013	
5.0	0.0	0.0	0.0	0.0	-0.042	-0.003	
6.0	0.0	0.0	0.0	0.0	-0.125	0.032	
7.0	0.0	0.0	0.0	0.0	-0.128	0.016	
8.0	0.0	0.0	0.0	0.0	-0.067	-0.006	
9.0	0.0	0.0	0.0	0.0	-0.003	-0.016	
10.0	0.0	0.0	0.0	0.0	0.07	-0.016	
11.0	0.0	0.0	0.0	0.0	0.147	-0.01	
12.0	0.0	0.0	0.0	0.0	0.24	-0.006	
13.0	0.0	0.0	0.0	0.0	0.271	0.0	
14.0	0.0	0.0	0.0	0.0	0.271	-0.019	
15.0	0.0	0.0	0.0	0.0	-0.022	-0.026	
0.0	0.0	0.0	0.0	0.0	-0.271	-0.022	
1.0	0.0	0.0	0.0	0.0	-0.287	-0.019	
2.0	0.0	0.0	0.0	0.0	-0.287	-0.016	
3.0	0.0	0.0	0.0	0.0	-0.297	-0.019	
4.0	0.0	0.0	0.0	0.0	-0.15	-0.035	
5.0	0.0	0.0	0.0	0.0	-0.016	-0.026	
6.0	0.0	0.0	0.0	0.0	0.077	-0.026	
7.0	0.0	0.0	0.0	0.0	0.115	-0.016	
8.0	0.0	0.0	0.0	0.0	0.141	-0.032	
9.0	0.0	0.0	0.0	0.0	0.112	-0.013	
10.0	0.0	0.0	0.0	0.0	0.08	0.019	
11.0	0.0	0.0	0.0	0.0	0.099	0.026	
12.0	0.0	0.0	0.0	0.0	0.07	0.016	
13.0	0.0	0.0	0.0	0.0	0.022	-0.013	
14.0	0.0	0.0	0.0	0.0	-0.019	-0.01	
15.0	0.0	0.0	0.0	0.0	-0.061	-0.022	
0.0	0.0	0.0	0.0	0.0	-0.064	-0.048	
1.0	0.0	0.0	0.0	0.0	-0.038	-0.045	
2.0	0.0	0.0	0.0	0.0	0.013	-0.061	
3.0	0.0	0.0	0.0	0.0	0.016	-0.064	
4.0	0.0	0.0	0.0	0.0	0.006	-0.042	
5.0	0.0	0.0	0.0	0.0	0.01	-0.038	
6.0	0.0	0.0	0.0	0.0	0.0	-0.032	
7.0	0.0	0.0	0.0	0.0	-0.019	-0.029	
8.0	0.0	0.0	0.0	0.0	-0.01	-0.026	
9.0	0.0	0.0	0.0	0.0	0.032	-0.019	
10.0	0.0	0.0	0.0	0.0	0.013	-0.003	
11.0	0.0	0.0	0.0	0.0	0.022	-0.006	
12.0	0.0	0.0	0.0	0.0	-0.01	-0.013	
13.0	0.0	0.0	0.0	0.0	-0.051	-0.006	
14.0	0.0	0.0	0.0	0.0	-0.054	0.029	
15.0	0.0	0.0	0.0	0.0	-0.006	0.035	
0.0	0.0	0.0	0.0	0.0	0.166	0.042	
1.0	0.0	0.0	0.0	0.0	0.252	0.035	
2.0	0.0	0.0	0.0	0.0	0.169	0.032	
