# OpenSignals Text File Format. Version 1
# {"88:6B:0F:F0:D6:9F": {"position": 0, "device": "bitalino_rev", "device name": "88:6B:0F:F0:D6:9F", "device connection": "BTH88:6B:0F:F0:D6:9F", "sampling rate": 1000, "resolution": [4, 1, 1, 1, 1, 10, 10], "firmware version": 1282, "comments": "", "keywords": "", "mode": 0, "sync interval": 2, "date": "2025-10-22", "time": "13:56:11.430", "channels": [3, 4], "sensor": ["EMGBITREV", "EMGBITREV"], "label": ["A3", "A4"], "column": ["nSeq", "I1", "I2", "O1", "O2", "A3", "A4"], "special": [{}, {}], "digital IO": [0, 0, 1, 1], "convertedValues": 1}}
# EndOfHeader
0.0	0.0	0.0	0.0	0.0	0.0	0.07	
1.0	0.0	0.0	0.0	0.0	0.006	-0.045	
2.0	0.0	0.0	0.0	0.0	0.0	0.172	
3.0	0.0	0.0	0.0	0.0	0.003	0.048	
4.0	0.0	0.0	0.0	0.0	0.006	-0.15	
5.0	0.0	0.0	0.0	0.0	0.01	-0.185	
6.0	0.0	0.0	0.0	0.0	-0.01	-0.054	
7.0	0.0	0.0	0.0	0.0	0.0	0.016	
8.0	0.0	0.0	0.0	0.0	-0.006	0.099	
9.0	0.0	0.0	0.0	0.0	0.0	0.003	
10.0	0.0	0.0	0.0	0.0	0.0	-0.125	
11.0	0.0	0.0	0.0	0.0	0.01	-0.064	
12.0	0.0	0.0	0.0	0.0	0.013	-0.003	
13.0	0.0	0.0	0.0	0.0	0.0	0.07	
14.0	0.0	0.0	0.0	0.0	-0.01	0.064	
15.0	0.0	0.0	0.0	0.0	0.003	-0.026	
0.0	0.0	0.0	0.0	0.0	-0.003	-0.042	
1.0	0.0	0.0	0.0	0.0	0.0	-0.026	
2.0	0.0	0.0	0.0	0.0	0.003	-0.016	
3.0	0.0	0.0	0.0	0.0	0.006	0.032	
4.0	0.0	0.0	0.0	0.0	-0.006	0.019	
5.0	0.0	0.0	0.0	0.0	0.0	0.01	
6.0	0.0	0.0	0.0	0.0	0.01	0.029	
7.0	0.0	0.0	0.0	0.0	0.006	-0.006	
8.0	0.0	0.0	0.0	0.0	-0.006	-0.188	
9.0	0.0	0.0	0.0	0.0	-0.01	-0.032	
10.0	0.0	0.0	0.0	0.0	-0.013	-0.182	
11.0	0.0	0.0	0.0	0.0	-0.006	-0.118	
12.0	0.0	0.0	0.0	0.0	-0.01	0.038	
13.0	0.0	0.0	0.0	0.0	-0.013	-0.035	
14.0	0.0	0.0	0.0	0.0	-0.003	0.057	
15.0	0.0	0.0	0.0	0.0	-0.006	-0.125	
0.0	0.0	0.0	0.0	0.0	-0.013	-0.137	
1.0	0.0	0.0	0.0	0.0	-0.006	-0.006	
2.0	0.0	0.0	0.0	0.0	-0.013	0.275	
3.0	0.0	0.0	0.0	0.0	-0.003	0.045	
4.0	0.0	0.0	0.0	0.0	0.01	0.176	
5.0	0.0	0.0	0.0	0.0	0.032	-0.125	
6.0	0.0	0.0	0.0	0.0	0.016	-0.093	
7.0	0.0	0.0	0.0	0.0	0.016	-0.051	
8.0	0.0	0.0	0.0	0.0	0.022	0.006	
9.0	0.0	0.0	0.0	0.0	0.022	0.003	
10.0	0.0	0.0	0.0	0.0	0.01	0.013	
11.0	0.0	0.0	0.0	0.0	0.0	-0.061	
12.0	0.0	0.0	0.0	0.0	0.003	-0.105	
13.0	0.0	0.0	0.0	0.0	0.0	0.08	
14.0	0.0	0.0	0.0	0.0	-0.003	0.073	
15.0	0.0	0.0	0.0	0.0	-0.01	-0.022	
0.0	0.0	0.0	0.0	0.0	-0.006	-0.038	
1.0	0.0	0.0	0.0	0.0	-0.013	-0.022	
2.0	0.0	0.0	0.0	0.0	-0.003	-0.006	
3.0	0.0	0.0	0.0	0.0	-0.016	0.013	
4.0	0.0	0.0	0.0	0.0	-0.016	0.016	
5.0	0.0	0.0	0.0	0.0	-0.026	-0.032	
6.0	0.0	0.0	0.0	0.0	-0.01	-0.077	
7.0	0.0	0.0	0.0	0.0	-0.016	-0.185	
8.0	0.0	0.0	0.0	0.0	-0.006	-0.128	
9.0	0.0	0.0	0.0	0.0	0.0	-0.128	
10.0	0.0	0.0	0.0	0.0	-0.006	-0.022	
11.0	0.0	0.0	0.0	0.0	0.006	-0.054	
12.0	0.0	0.0	0.0	0.0	0.019	-0.073	
13.0	0.0	0.0	0.0	0.0	0.006	0.195	
14.0	0.0	0.0	0.0	0.0	0.003	0.332	
15.0	0.0	0.0	0.0	0.0	0.01	0.064	
0.0	0.0	0.0	0.0	0.0	0.013	-0.099	
1.0	0.0	0.0	0.0	0.0	-0.01	0.195	
2.0	0.0	0.0	0.0	0.0	0.0	-0.067	
3.0	0.0	0.0	0.0	0.0	0.0	0.166	
4.0	0.0	0.0	0.0	0.0	-0.003	0.102	
5.0	0.0	0.0	0.0	0.0	0.01	0.01	
6.0	0.0	0.0	0.0	0.0	0.01	-0.23	
7.0	0.0	0.0	0.0	0.0	0.003	-0.179	
8.0	0.0	0.0	0.0	0.0	0.003	-0.032	
9.0	0.0	0.0	0.0	0.0	-0.003	-0.006	
10.0	0.0	0.0	0.0	0.0	-0.026	-0.22	
11.0	0.0	0.0	0.0	0.0	-0.013	-0.045	
12.0	0.0	0.0	0.0	0.0	-0.003	-0.051	
13.0	0.0	0.0	0.0	0.0	-0.003	-0.224	
14.0	0.0	0.0	0.0	0.0	-0.013	0.271	
15.0	0.0	0.0	0.0	0.0	-0.013	0.118	
0.0	0.0	0.0	0.0	0.0	0.01	-0.073	
1.0	0.0	0.0	0.0	0.0	0.003	-0.032	
2.0	0.0	0.0	0.0	0.0	0.016	-0.006	
3.0	0.0	0.0	0.0	0.0	0.006	-0.016	
4.0	0.0	0.0	0.0	0.0	0.0	-0.045	
5.0	0.0	0.0	0.0	0.0	0.01	-0.038	
6.0	0.0	0.0	0.0	0.0	-0.006	-0.051	
7.0	0.0	0.0	0.0	0.0	-0.019	0.038	
8.0	0.0	0.0	0.0	0.0	-0.016	0.16	
9.0	0.0	0.0	0.0	0.0	-0.003	0.077	
10.0	0.0	0.0	0.0	0.0	-0.003	-0.016	
11.0	0.0	0.0	0.0	0.0	0.016	-0.172	
12.0	0.0	0.0	0.0	0.0	0.006	-0.051	
13.0	0.0	0.0	0.0	0.0	0.013	-0.192	
14.0	0.0	0.0	0.0	0.0	0.016	0.061	
15.0	0.0	0.0	0.0	0.0	0.0	-0.038	
0.0	0.0	0.0	0.0	0.0	-0.006	-0.064	
1.0	0.0	0.0	0.0	0.0	-0.026	-0.006	
2.0	0.0	0.0	0.0	0.0	-0.016	-0.054	
3.0	0.0	0.0	0.0	0.0	0.0	-0.035	
4.0	0.0	0.0	0.0	0.0	0.006	-0.073	
5.0	0.0	0.0	0.0	0.0	0.01	-0.093	
6.0	0.0	0.0	0.0	0.0	0.006	0.064	
7.0	0.0	0.0	0.0	0.0	0.006	0.07	
8.0	0.0	0.0	0.0	0.0	-0.006	0.032	
9.0	0.0	0.0	0.0	0.0	-0.016	-0.045	
10.0	0.0	0.0	0.0	0.0	-0.013	-0.093	
11.0	0.0	0.0	0.0	0.0	-0.013	-0.112	
12.0	0.0	0.0	0.0	0.0	0.0	-0.016	
13.0	0.0	0.0	0.0	0.0	-0.01	0.096	
14.0	0.0	0.0	0.0	0.0	-0.032	0.214	
15.0	0.0	0.0	0.0	0.0	-0.013	0.0	
0.0	0.0	0.0	0.0	0.0	-0.003	-0.054	
1.0	0.0	0.0	0.0	0.0	0.013	-0.026	
2.0	0.0	0.0	0.0	0.0	0.019	-0.01	
3.0	0.0	0.0	0.0	0.0	0.032	-0.026	
4.0	0.0	0.0	0.0	0.0	0.038	-0.026	
5.0	0.0	0.0	0.0	0.0	0.038	-0.096	
6.0	0.0	0.0	0.0	0.0	0.026	-0.093	
7.0	0.0	0.0	0.0	0.0	0.016	-0.073	
8.0	0.0	0.0	0.0	0.0	0.003	-0.077	
9.0	0.0	0.0	0.0	0.0	-0.016	-0.089	
10.0	0.0	0.0	0.0	0.0	-0.032	0.137	
11.0	0.0	0.0	0.0	0.0	-0.029	0.166	
12.0	0.0	0.0	0.0	0.0	-0.013	0.019	
13.0	0.0	0.0	0.0	0.0	-0.006	0.166	
14.0	0.0	0.0	0.0	0.0	-0.006	0.179	
15.0	0.0	0.0	0.0	0.0	-0.01	-0.038	
0.0	0.0	0.0	0.0	0.0	-0.026	-0.157	
1.0	0.0	0.0	0.0	0.0	-0.016	-0.109	
2.0	0.0	0.0	0.0	0.0	-0.013	-0.201	
3.0	0.0	0.0	0.0	0.0	-0.013	-0.208	
4.0	0.0	0.0	0.0	0.0	0.0	0.022	
5.0	0.0	0.0	0.0	0.0	0.0	0.042	
6.0	0.0	0.0	0.0	0.0	0.01	-0.089	
7.0	0.0	0.0	0.0	0.0	0.0	0.204	
8.0	0.0	0.0	0.0	0.0	0.01	0.057	
9.0	0.0	0.0	0.0	0.0	0.019	-0.099	
10.0	0.0	0.0	0.0	0.0	0.01	-0.192	
11.0	0.0	0.0	0.0	0.0	0.016	-0.169	
12.0	0.0	0.0	0.0	0.0	-0.01	0.032	
13.0	0.0	0.0	0.0	0.0	-0.029	0.281	
14.0	0.0	0.0	0.0	0.0	-0.026	0.23	
15.0	0.0	0.0	0.0	0.0	-0.006	0.121	
0.0	0.0	0.0	0.0	0.0	-0.003	-0.204	
1.0	0.0	0.0	0.0	0.0	-0.003	-0.169	
2.0	0.0	0.0	0.0	0.0	-0.003	-0.07	
3.0	0.0	0.0	0.0	0.0	-0.003	-0.115	
4.0	0.0	0.0	0.0	0.0	-0.003	-0.08	
5.0	0.0	0.0	0.0	0.0	0.003	-0.128	
6.0	0.0	0.0	0.0	0.0	0.003	-0.185	
7.0	0.0	0.0	0.0	0.0	0.003	0.188	
8.0	0.0	0.0	0.0	0.0	-0.003	0.096	
9.0	0.0	0.0	0.0	0.0	0.01	-0.013	
10.0	0.0	0.0	0.0	0.0	0.006	0.102	
11.0	0.0	0.0	0.0	0.0	-0.003	0.073	
12.0	0.0	0.0	0.0	0.0	-0.003	-0.057	
13.0	0.0	0.0	0.0	0.0	0.019	-0.176	
14.0	0.0	0.0	0.0	0.0	0.0	0.077	
15.0	0.0	0.0	0.0	0.0	0.006	0.115	
0.0	0.0	0.0	0.0	0.0	0.01	0.185	
1.0	0.0	0.0	0.0	0.0	0.003	0.086	
2.0	0.0	0.0	0.0	0.0	0.003	-0.102	
3.0	0.0	0.0	0.0	0.0	-0.003	-0.109	
4.0	0.0	0.0	0.0	0.0	-0.016	-0.137	
5.0	0.0	0.0	0.0	0.0	0.003	-0.061	
6.0	0.0	0.0	0.0	0.0	-0.003	-0.01	
7.0	0.0	0.0	0.0	0.0	-0.003	-0.013	
8.0	0.0	0.0	0.0	0.0	0.0	-0.032	
9.0	0.0	0.0	0.0	0.0	-0.01	-0.064	
10.0	0.0	0.0	0.0	0.0	-0.01	-0.105	
11.0	0.0	0.0	0.0	0.0	-0.013	-0.026	
12.0	0.0	0.0	0.0	0.0	-0.013	0.003	
13.0	0.0	0.0	0.0	0.0	0.01	0.016	
14.0	0.0	0.0	0.0	0.0	0.0	-0.048	
15.0	0.0	0.0	0.0	0.0	0.0	-0.163	
0.0	0.0	0.0	0.0	0.0	0.006	-0.057	
1.0	0.0	0.0	0.0	0.0	0.013	0.035	
2.0	0.0	0.0	0.0	0.0	0.0	0.038	
3.0	0.0	0.0	0.0	0.0	-0.019	0.038	
4.0	0.0	0.0	0.0	0.0	-0.026	-0.01	
5.0	0.0	0.0	0.0	0.0	-0.013	-0.061	
6.0	0.0	0.0	0.0	0.0	0.003	-0.102	
7.0	0.0	0.0	0.0	0.0	0.01	-0.096	
8.0	0.0	0.0	0.0	0.0	0.01	-0.016	
9.0	0.0	0.0	0.0	0.0	0.01	0.182	
10.0	0.0	0.0	0.0	0.0	0.01	0.144	
11.0	0.0	0.0	0.0	0.0	0.019	0.022	
12.0	0.0	0.0	0.0	0.0	0.01	-0.045	
13.0	0.0	0.0	0.0	0.0	0.0	-0.089	
14.0	0.0	0.0	0.0	0.0	-0.022	-0.061	
15.0	0.0	0.0	0.0	0.0	-0.026	0.112	
0.0	0.0	0.0	0.0	0.0	-0.003	-0.016	
1.0	0.0	0.0	0.0	0.0	0.0	0.064	
2.0	0.0	0.0	0.0	0.0	0.013	-0.01	
3.0	0.0	0.0	0.0	0.0	0.01	-0.01	
4.0	0.0	0.0	0.0	0.0	0.019	-0.019	
5.0	0.0	0.0	0.0	0.0	0.0	-0.102	
6.0	0.0	0.0	0.0	0.0	-0.006	-0.093	
7.0	0.0	0.0	0.0	0.0	-0.01	-0.093	
8.0	0.0	0.0	0.0	0.0	0.0	-0.112	
9.0	0.0	0.0	0.0	0.0	-0.003	0.096	
10.0	0.0	0.0	0.0	0.0	-0.01	0.176	
11.0	0.0	0.0	0.0	0.0	-0.016	-0.16	
12.0	0.0	0.0	0.0	0.0	-0.016	0.038	
13.0	0.0	0.0	0.0	0.0	-0.013	0.07	
14.0	0.0	0.0	0.0	0.0	-0.003	-0.077	
15.0	0.0	0.0	0.0	0.0	-0.016	-0.192	
0.0	0.0	0.0	0.0	0.0	-0.013	-0.032	
1.0	0.0	0.0	0.0	0.0	-0.016	0.402	
2.0	0.0	0.0	0.0	0.0	0.0	-0.073	
3.0	0.0	0.0	0.0	0.0	0.019	0.067	
4.0	0.0	0.0	0.0	0.0	0.006	0.093	
5.0	0.0	0.0	0.0	0.0	-0.003	-0.083	
6.0	0.0	0.0	0.0	0.0	-0.01	-0.319	
7.0	0.0	0.0	0.0	0.0	-0.003	-0.134	
8.0	0.0	0.0	0.0	0.0	-0.01	-0.089	
9.0	0.0	0.0	0.0	0.0	-0.006	-0.07	
10.0	0.0	0.0	0.0	0.0	-0.003	-0.153	
11.0	0.0	0.0	0.0	0.0	-0.006	-0.048	
12.0	0.0	0.0	0.0	0.0	0.013	-0.022	
13.0	0.0	0.0	0.0	0.0	0.029	0.042	
14.0	0.0	0.0	0.0	0.0	0.042	0.303	
15.0	0.0	0.0	0.0	0.0	0.038	0.553	
0.0	0.0	0.0	0.0	0.0	0.042	0.022	
1.0	0.0	0.0	0.0	0.0	0.022	-0.131	
2.0	0.0	0.0	0.0	0.0	0.003	-0.208	
3.0	0.0	0.0	0.0	0.0	-0.016	-0.383	
4.0	0.0	0.0	0.0	0.0	-0.029	-0.125	
5.0	0.0	0.0	0.0	0.0	-0.032	0.077	
6.0	0.0	0.0	0.0	0.0	-0.026	0.057	
7.0	0.0	0.0	0.0	0.0	-0.022	-0.042	
8.0	0.0	0.0	0.0	0.0	-0.019	-0.035	
9.0	0.0	0.0	0.0	0.0	-0.003	-0.089	
10.0	0.0	0.0	0.0	0.0	-0.003	-0.077	
11.0	0.0	0.0	0.0	0.0	-0.003	0.128	
12.0	0.0	0.0	0.0	0.0	-0.006	0.134	
13.0	0.0	0.0	0.0	0.0	-0.003	0.032	
14.0	0.0	0.0	0.0	0.0	0.013	0.013	
15.0	0.0	0.0	0.0	0.0	0.006	0.08	
0.0	0.0	0.0	0.0	0.0	0.003	0.003	
1.0	0.0	0.0	0.0	0.0	0.0	-0.166	
2.0	0.0	0.0	0.0	0.0	0.006	-0.214	
3.0	0.0	0.0	0.0	0.0	0.003	-0.118	
4.0	0.0	0.0	0.0	0.0	0.013	-0.109	
5.0	0.0	0.0	0.0	0.0	0.003	-0.093	
6.0	0.0	0.0	0.0	0.0	-0.01	0.16	
7.0	0.0	0.0	0.0	0.0	-0.019	0.185	
8.0	0.0	0.0	0.0	0.0	-0.013	-0.019	
9.0	0.0	0.0	0.0	0.0	-0.006	-0.035	
10.0	0.0	0.0	0.0	0.0	0.003	0.112	
11.0	0.0	0.0	0.0	0.0	0.0	0.042	
12.0	0.0	0.0	0.0	0.0	0.006	-0.01	
13.0	0.0	0.0	0.0	0.0	0.003	-0.022	
14.0	0.0	0.0	0.0	0.0	0.003	-0.022	
15.0	0.0	0.0	0.0	0.0	0.006	-0.006	
0.0	0.0	0.0	0.0	0.0	0.0	-0.029	
1.0	0.0	0.0	0.0	0.0	-0.003	-0.105	
2.0	0.0	0.0	0.0	0.0	-0.003	-0.121	
3.0	0.0	0.0	0.0	0.0	0.003	-0.042	
4.0	0.0	0.0	0.0	0.0	0.013	-0.013	
5.0	0.0	0.0	0.0	0.0	0.0	-0.086	
6.0	0.0	0.0	0.0	0.0	-0.013	0.0	
7.0	0.0	0.0	0.0	0.0	-0.022	0.013	
8.0	0.0	0.0	0.0	0.0	-0.026	-0.112	
9.0	0.0	0.0	0.0	0.0	-0.013	0.093	
10.0	0.0	0.0	0.0	0.0	0.0	-0.019	
11.0	0.0	0.0	0.0	0.0	0.01	-0.054	
12.0	0.0	0.0	0.0	0.0	0.0	-0.051	
13.0	0.0	0.0	0.0	0.0	-0.006	-0.029	
14.0	0.0	0.0	0.0	0.0	0.022	-0.073	
15.0	0.0	0.0	0.0	0.0	0.006	0.07	
0.0	0.0	0.0	0.0	0.0	0.006	0.051	
1.0	0.0	0.0	0.0	0.0	0.0	0.169	
2.0	0.0	0.0	0.0	0.0	0.006	0.048	
3.0	0.0	0.0	0.0	0.0	0.003	-0.057	
4.0	0.0	0.0	0.0	0.0	0.0	0.121	
5.0	0.0	0.0	0.0	0.0	0.003	0.038	
6.0	0.0	0.0	0.0	0.0	0.003	-0.144	
7.0	0.0	0.0	0.0	0.0	-0.003	-0.22	
8.0	0.0	0.0	0.0	0.0	-0.016	-0.31	
9.0	0.0	0.0	0.0	0.0	-0.026	-0.019	
10.0	0.0	0.0	0.0	0.0	-0.016	0.077	
11.0	0.0	0.0	0.0	0.0	-0.032	0.22	
12.0	0.0	0.0	0.0	0.0	-0.003	0.172	
13.0	0.0	0.0	0.0	0.0	0.026	-0.022	
14.0	0.0	0.0	0.0	0.0	0.013	-0.083	
15.0	0.0	0.0	0.0	0.0	0.0	-0.195	
0.0	0.0	0.0	0.0	0.0	-0.01	-0.093	
1.0	0.0	0.0	0.0	0.0	-0.003	-0.003	
2.0	0.0	0.0	0.0	0.0	0.006	-0.003	
3.0	0.0	0.0	0.0	0.0	0.01	-0.141	
4.0	0.0	0.0	0.0	0.0	0.01	-0.064	
5.0	0.0	0.0	0.0	0.0	0.003	0.418	
6.0	0.0	0.0	0.0	0.0	0.022	0.054	
7.0	0.0	0.0	0.0	0.0	0.013	0.026	
8.0	0.0	0.0	0.0	0.0	0.0	0.0	
9.0	0.0	0.0	0.0	0.0	-0.026	-0.048	
10.0	0.0	0.0	0.0	0.0	-0.042	0.093	
11.0	0.0	0.0	0.0	0.0	-0.045	-0.182	
12.0	0.0	0.0	0.0	0.0	-0.032	-0.217	
13.0	0.0	0.0	0.0	0.0	0.003	-0.16	
14.0	0.0	0.0	0.0	0.0	0.026	-0.064	
15.0	0.0	0.0	0.0	0.0	0.026	-0.003	
0.0	0.0	0.0	0.0	0.0	0.019	0.026	
1.0	0.0	0.0	0.0	0.0	0.026	0.131	
2.0	0.0	0.0	0.0	0.0	0.038	-0.019	
3.0	0.0	0.0	0.0	0.0	0.013	0.026	
4.0	0.0	0.0	0.0	0.0	-0.01	-0.022	
5.0	0.0	0.0	0.0	0.0	-0.035	-0.019	
6.0	0.0	0.0	0.0	0.0	-0.019	-0.032	
7.0	0.0	0.0	0.0	0.0	-0.013	-0.022	
8.0	0.0	0.0	0.0	0.0	-0.022	-0.051	
9.0	0.0	0.0	0.0	0.0	-0.022	-0.013	
10.0	0.0	0.0	0.0	0.0	-0.016	-0.016	
11.0	0.0	0.0	0.0	0.0	-0.006	-0.121	
12.0	0.0	0.0	0.0	0.0	0.006	0.073	
13.0	0.0	0.0	0.0	0.0	-0.003	0.077	
14.0	0.0	0.0	0.0	0.0	-0.006	-0.035	
15.0	0.0	0.0	0.0	0.0	0.01	-0.003	
0.0	0.0	0.0	0.0	0.0	0.016	0.077	
1.0	0.0	0.0	0.0	0.0	0.01	-0.083	
2.0	0.0	0.0	0.0	0.0	0.01	-0.096	
3.0	0.0	0.0	0.0	0.0	0.006	-0.019	
4.0	0.0	0.0	0.0	0.0	0.0	0.019	
5.0	0.0	0.0	0.0	0.0	0.003	0.016	
6.0	0.0	0.0	0.0	0.0	0.0	0.026	
7.0	0.0	0.0	0.0	0.0	0.003	0.003	
8.0	0.0	0.0	0.0	0.0	0.006	-0.022	
9.0	0.0	0.0	0.0	0.0	0.01	-0.045	
10.0	0.0	0.0	0.0	0.0	-0.006	-0.086	
11.0	0.0	0.0	0.0	0.0	0.0	-0.083	
12.0	0.0	0.0	0.0	0.0	-0.013	0.176	
13.0	0.0	0.0	0.0	0.0	-0.006	0.141	
14.0	0.0	0.0	0.0	0.0	-0.022	-0.093	
15.0	0.0	0.0	0.0	0.0	-0.019	-0.204	
0.0	0.0	0.0	0.0	0.0	-0.016	-0.3	
1.0	0.0	0.0	0.0	0.0	0.003	-0.246	
2.0	0.0	0.0	0.0	0.0	0.01	-0.096	
3.0	0.0	0.0	0.0	0.0	0.019	0.572	
4.0	0.0	0.0	0.0	0.0	0.01	0.447	
5.0	0.0	0.0	0.0	0.0	0.019	-0.105	
6.0	0.0	0.0	0.0	0.0	0.013	-0.086	
7.0	0.0	0.0	0.0	0.0	-0.003	-0.182	
8.0	0.0	0.0	0.0	0.0	-0.013	-0.131	
9.0	0.0	0.0	0.0	0.0	-0.006	-0.064	
10.0	0.0	0.0	0.0	0.0	-0.003	-0.026	
11.0	0.0	0.0	0.0	0.0	-0.026	0.364	
12.0	0.0	0.0	0.0	0.0	-0.016	-0.019	
13.0	0.0	0.0	0.0	0.0	0.016	-0.256	
14.0	0.0	0.0	0.0	0.0	0.003	-0.141	
15.0	0.0	0.0	0.0	0.0	-0.003	-0.185	
0.0	0.0	0.0	0.0	0.0	0.003	-0.144	
1.0	0.0	0.0	0.0	0.0	-0.006	0.013	
2.0	0.0	0.0	0.0	0.0	-0.006	0.147	
3.0	0.0	0.0	0.0	0.0	0.003	0.22	
4.0	0.0	0.0	0.0	0.0	0.013	0.246	
5.0	0.0	0.0	0.0	0.0	0.01	0.112	
6.0	0.0	0.0	0.0	0.0	-0.006	-0.278	
7.0	0.0	0.0	0.0	0.0	-0.013	-0.278	
8.0	0.0	0.0	0.0	0.0	-0.016	-0.182	
9.0	0.0	0.0	0.0	0.0	-0.006	-0.115	
10.0	0.0	0.0	0.0	0.0	0.01	-0.102	
11.0	0.0	0.0	0.0	0.0	0.006	0.211	
12.0	0.0	0.0	0.0	0.0	0.003	0.249	
13.0	0.0	0.0	0.0	0.0	0.013	0.051	
14.0	0.0	0.0	0.0	0.0	0.003	0.077	
15.0	0.0	0.0	0.0	0.0	-0.003	-0.019	
0.0	0.0	0.0	0.0	0.0	-0.013	-0.064	
1.0	0.0	0.0	0.0	0.0	-0.006	-0.003	
2.0	0.0	0.0	0.0	0.0	0.006	-0.01	
3.0	0.0	0.0	0.0	0.0	0.0	-0.013	
4.0	0.0	0.0	0.0	0.0	-0.003	-0.013	
5.0	0.0	0.0	0.0	0.0	-0.006	-0.029	
6.0	0.0	0.0	0.0	0.0	0.0	-0.035	
7.0	0.0	0.0	0.0	0.0	-0.003	-0.131	
8.0	0.0	0.0	0.0	0.0	-0.003	0.01	
9.0	0.0	0.0	0.0	0.0	0.01	0.003	
10.0	0.0	0.0	0.0	0.0	0.0	0.048	
11.0	0.0	0.0	0.0	0.0	-0.003	0.0	
12.0	0.0	0.0	0.0	0.0	-0.006	-0.083	
13.0	0.0	0.0	0.0	0.0	0.006	-0.086	
14.0	0.0	0.0	0.0	0.0	0.0	-0.026	
15.0	0.0	0.0	0.0	0.0	-0.006	-0.006	
0.0	0.0	0.0	0.0	0.0	0.003	-0.01	
1.0	0.0	0.0	0.0	0.0	0.013	-0.042	
2.0	0.0	0.0	0.0	0.0	0.013	-0.048	
3.0	0.0	0.0	0.0	0.0	0.0	-0.077	
4.0	0.0	0.0	0.0	0.0	-0.013	-0.134	
5.0	0.0	0.0	0.0	0.0	-0.019	0.086	
6.0	0.0	0.0	0.0	0.0	-0.026	0.102	
7.0	0.0	0.0	0.0	0.0	-0.016	0.048	
8.0	0.0	0.0	0.0	0.0	-0.013	0.006	
9.0	0.0	0.0	0.0	0.0	-0.003	-0.051	
10.0	0.0	0.0	0.0	0.0	-0.006	-0.022	
11.0	0.0	0.0	0.0	0.0	0.003	0.048	
12.0	0.0	0.0	0.0	0.0	0.006	0.013	
13.0	0.0	0.0	0.0	0.0	0.0	-0.105	
14.0	0.0	0.0	0.0	0.0	-0.016	-0.157	
15.0	0.0	0.0	0.0	0.0	0.006	-0.003	
0.0	0.0	0.0	0.0	0.0	0.013	0.042	
1.0	0.0	0.0	0.0	0.0	0.022	0.093	
2.0	0.0	0.0	0.0	0.0	0.022	-0.15	
3.0	0.0	0.0	0.0	0.0	0.013	-0.118	
4.0	0.0	0.0	0.0	0.0	0.013	-0.083	
5.0	0.0	0.0	0.0	0.0	0.016	-0.064	
6.0	0.0	0.0	0.0	0.0	-0.013	0.115	
7.0	0.0	0.0	0.0	0.0	-0.026	0.323	
8.0	0.0	0.0	0.0	0.0	-0.006	0.07	
9.0	0.0	0.0	0.0	0.0	0.016	0.083	
10.0	0.0	0.0	0.0	0.0	0.0	0.105	
11.0	0.0	0.0	0.0	0.0	-0.013	-0.131	
12.0	0.0	0.0	0.0	0.0	-0.016	-0.086	
13.0	0.0	0.0	0.0	0.0	-0.026	-0.121	
14.0	0.0	0.0	0.0	0.0	-0.026	-0.281	
15.0	0.0	0.0	0.0	0.0	-0.026	-0.185	
0.0	0.0	0.0	0.0	0.0	-0.022	-0.067	
1.0	0.0	0.0	0.0	0.0	-0.035	0.246	
2.0	0.0	0.0	0.0	0.0	-0.026	0.169	
3.0	0.0	0.0	0.0	0.0	0.022	-0.153	
4.0	0.0	0.0	0.0	0.0	0.038	-0.383	
5.0	0.0	0.0	0.0	0.0	0.042	-0.061	
6.0	0.0	0.0	0.0	0.0	0.061	-0.07	
7.0	0.0	0.0	0.0	0.0	0.077	-0.141	
8.0	0.0	0.0	0.0	0.0	0.057	0.233	
9.0	0.0	0.0	0.0	0.0	0.026	0.549	
10.0	0.0	0.0	0.0	0.0	-0.003	0.303	
11.0	0.0	0.0	0.0	0.0	-0.016	-0.176	
12.0	0.0	0.0	0.0	0.0	-0.032	-0.153	
13.0	0.0	0.0	0.0	0.0	-0.029	0.006	
14.0	0.0	0.0	0.0	0.0	-0.029	0.057	
15.0	0.0	0.0	0.0	0.0	-0.026	-0.096	
0.0	0.0	0.0	0.0	0.0	-0.013	-0.128	
1.0	0.0	0.0	0.0	0.0	-0.013	-0.067	
2.0	0.0	0.0	0.0	0.0	-0.019	-0.022	
3.0	0.0	0.0	0.0	0.0	-0.013	0.013	
4.0	0.0	0.0	0.0	0.0	-0.016	0.029	
5.0	0.0	0.0	0.0	0.0	0.0	-0.045	
6.0	0.0	0.0	0.0	0.0	-0.003	-0.201	
7.0	0.0	0.0	0.0	0.0	0.003	-0.141	
8.0	0.0	0.0	0.0	0.0	0.003	0.233	
9.0	0.0	0.0	0.0	0.0	0.0	0.141	
10.0	0.0	0.0	0.0	0.0	0.006	-0.045	
11.0	0.0	0.0	0.0	0.0	0.003	-0.099	
12.0	0.0	0.0	0.0	0.0	0.016	-0.038	
13.0	0.0	0.0	0.0	0.0	0.013	-0.035	
14.0	0.0	0.0	0.0	0.0	0.006	0.077	
15.0	0.0	0.0	0.0	0.0	-0.003	-0.051	
0.0	0.0	0.0	0.0	0.0	0.0	-0.089	
1.0	0.0	0.0	0.0	0.0	0.0	-0.064	
2.0	0.0	0.0	0.0	0.0	-0.006	-0.042	
3.0	0.0	0.0	0.0	0.0	0.0	0.048	
4.0	0.0	0.0	0.0	0.0	-0.01	0.061	
5.0	0.0	0.0	0.0	0.0	-0.019	0.013	
6.0	0.0	0.0	0.0	0.0	-0.029	-0.054	
7.0	0.0	0.0	0.0	0.0	-0.032	-0.089	
8.0	0.0	0.0	0.0	0.0	-0.019	-0.035	
9.0	0.0	0.0	0.0	0.0	0.003	0.01	
10.0	0.0	0.0	0.0	0.0	-0.003	0.01	
11.0	0.0	0.0	0.0	0.0	0.013	0.003	
12.0	0.0	0.0	0.0	0.0	0.016	-0.013	
13.0	0.0	0.0	0.0	0.0	0.01	0.0	
14.0	0.0	0.0	0.0	0.0	0.006	-0.035	
15.0	0.0	0.0	0.0	0.0	-0.003	-0.054	
0.0	0.0	0.0	0.0	0.0	0.006	0.022	
1.0	0.0	0.0	0.0	0.0	0.016	-0.019	
2.0	0.0	0.0	0.0	0.0	0.0	-0.201	
3.0	0.0	0.0	0.0	0.0	0.013	0.217	
4.0	0.0	0.0	0.0	0.0	0.013	0.134	
5.0	0.0	0.0	0.0	0.0	0.003	-0.297	
6.0	0.0	0.0	0.0	0.0	-0.006	-0.102	
7.0	0.0	0.0	0.0	0.0	-0.019	0.0	
8.0	0.0	0.0	0.0	0.0	-0.022	-0.003	
9.0	0.0	0.0	0.0	0.0	-0.022	-0.035	
10.0	0.0	0.0	0.0	0.0	-0.022	-0.077	
11.0	0.0	0.0	0.0	0.0	-0.016	-0.042	
12.0	0.0	0.0	0.0	0.0	0.0	-0.019	
13.0	0.0	0.0	0.0	0.0	0.003	0.265	
14.0	0.0	0.0	0.0	0.0	0.0	0.032	
15.0	0.0	0.0	0.0	0.0	0.013	-0.252	
0.0	0.0	0.0	0.0	0.0	0.019	-0.032	
1.0	0.0	0.0	0.0	0.0	0.01	-0.022	
2.0	0.0	0.0	0.0	0.0	0.0	-0.358	
3.0	0.0	0.0	0.0	0.0	0.0	0.355	
4.0	0.0	0.0	0.0	0.0	0.003	0.323	
5.0	0.0	0.0	0.0	0.0	0.0	0.089	
6.0	0.0	0.0	0.0	0.0	-0.006	0.064	
7.0	0.0	0.0	0.0	0.0	-0.003	0.0	
8.0	0.0	0.0	0.0	0.0	-0.01	-0.188	
9.0	0.0	0.0	0.0	0.0	-0.022	-0.252	
10.0	0.0	0.0	0.0	0.0	-0.013	-0.192	
11.0	0.0	0.0	0.0	0.0	0.0	-0.01	
12.0	0.0	0.0	0.0	0.0	0.006	0.019	
13.0	0.0	0.0	0.0	0.0	0.003	0.227	
14.0	0.0	0.0	0.0	0.0	0.01	0.08	
15.0	0.0	0.0	0.0	0.0	-0.016	0.019	
0.0	0.0	0.0	0.0	0.0	-0.013	-0.118	
1.0	0.0	0.0	0.0	0.0	0.003	-0.294	
2.0	0.0	0.0	0.0	0.0	0.003	-0.115	
3.0	0.0	0.0	0.0	0.0	0.0	0.233	
4.0	0.0	0.0	0.0	0.0	0.013	0.163	
5.0	0.0	0.0	0.0	0.0	0.019	0.099	
6.0	0.0	0.0	0.0	0.0	0.003	0.057	
7.0	0.0	0.0	0.0	0.0	-0.01	-0.08	
8.0	0.0	0.0	0.0	0.0	0.0	-0.128	
9.0	0.0	0.0	0.0	0.0	0.0	0.064	
10.0	0.0	0.0	0.0	0.0	0.003	-0.048	
11.0	0.0	0.0	0.0	0.0	0.01	-0.15	
12.0	0.0	0.0	0.0	0.0	-0.003	-0.157	
13.0	0.0	0.0	0.0	0.0	-0.022	0.3	
14.0	0.0	0.0	0.0	0.0	-0.035	0.137	
15.0	0.0	0.0	0.0	0.0	-0.035	-0.109	
0.0	0.0	0.0	0.0	0.0	-0.016	-0.141	
1.0	0.0	0.0	0.0	0.0	0.013	0.016	
2.0	0.0	0.0	0.0	0.0	0.032	0.125	
3.0	0.0	0.0	0.0	0.0	0.035	0.026	
4.0	0.0	0.0	0.0	0.0	0.045	-0.051	
5.0	0.0	0.0	0.0	0.0	0.048	-0.256	
6.0	0.0	0.0	0.0	0.0	0.022	-0.15	
7.0	0.0	0.0	0.0	0.0	0.01	0.061	
8.0	0.0	0.0	0.0	0.0	-0.006	0.054	
9.0	0.0	0.0	0.0	0.0	-0.029	-0.102	
10.0	0.0	0.0	0.0	0.0	-0.032	-0.026	
11.0	0.0	0.0	0.0	0.0	-0.019	-0.204	
12.0	0.0	0.0	0.0	0.0	-0.003	-0.102	
13.0	0.0	0.0	0.0	0.0	-0.01	-0.08	
14.0	0.0	0.0	0.0	0.0	-0.01	-0.096	
15.0	0.0	0.0	0.0	0.0	-0.006	-0.054	
0.0	0.0	0.0	0.0	0.0	0.0	-0.016	
1.0	0.0	0.0	0.0	0.0	-0.01	0.214	
2.0	0.0	0.0	0.0	0.0	-0.022	-0.048	
3.0	0.0	0.0	0.0	0.0	-0.022	0.042	
4.0	0.0	0.0	0.0	0.0	-0.032	0.224	
5.0	0.0	0.0	0.0	0.0	-0.019	0.045	
6.0	0.0	0.0	0.0	0.0	-0.013	-0.08	
7.0	0.0	0.0	0.0	0.0	0.0	0.022	
8.0	0.0	0.0	0.0	0.0	0.013	0.128	
9.0	0.0	0.0	0.0	0.0	0.032	0.042	
10.0	0.0	0.0	0.0	0.0	0.029	-0.086	
11.0	0.0	0.0	0.0	0.0	0.032	-0.182	
12.0	0.0	0.0	0.0	0.0	0.035	-0.163	
13.0	0.0	0.0	0.0	0.0	0.029	-0.016	
14.0	0.0	0.0	0.0	0.0	0.035	0.157	
15.0	0.0	0.0	0.0	0.0	0.022	0.102	
0.0	0.0	0.0	0.0	0.0	-0.016	-0.102	
1.0	0.0	0.0	0.0	0.0	-0.035	-0.128	
2.0	0.0	0.0	0.0	0.0	-0.048	-0.061	
3.0	0.0	0.0	0.0	0.0	-0.048	-0.102	
4.0	0.0	0.0	0.0	0.0	-0.026	-0.093	
5.0	0.0	0.0	0.0	0.0	-0.022	0.121	
6.0	0.0	0.0	0.0	0.0	-0.006	-0.057	
7.0	0.0	0.0	0.0	0.0	0.0	-0.077	
8.0	0.0	0.0	0.0	0.0	-0.006	-0.026	
9.0	0.0	0.0	0.0	0.0	0.0	0.016	
10.0	0.0	0.0	0.0	0.0	-0.003	0.374	
11.0	0.0	0.0	0.0	0.0	-0.013	0.096	
12.0	0.0	0.0	0.0	0.0	-0.006	-0.093	
13.0	0.0	0.0	0.0	0.0	0.01	-0.118	
14.0	0.0	0.0	0.0	0.0	0.01	-0.035	
15.0	0.0	0.0	0.0	0.0	0.0	-0.003	
0.0	0.0	0.0	0.0	0.0	0.006	-0.045	
1.0	0.0	0.0	0.0	0.0	0.019	-0.099	
2.0	0.0	0.0	0.0	0.0	0.013	-0.128	
3.0	0.0	0.0	0.0	0.0	0.013	-0.019	
4.0	0.0	0.0	0.0	0.0	0.016	0.045	
5.0	0.0	0.0	0.0	0.0	0.006	0.019	
6.0	0.0	0.0	0.0	0.0	0.013	-0.057	
7.0	0.0	0.0	0.0	0.0	0.0	-0.115	
8.0	0.0	0.0	0.0	0.0	-0.01	-0.115	
9.0	0.0	0.0	0.0	0.0	-0.019	-0.089	
10.0	0.0	0.0	0.0	0.0	-0.016	-0.198	
11.0	0.0	0.0	0.0	0.0	-0.019	0.313	
12.0	0.0	0.0	0.0	0.0	-0.013	0.409	
13.0	0.0	0.0	0.0	0.0	0.0	0.141	
14.0	0.0	0.0	0.0	0.0	0.0	0.08	
15.0	0.0	0.0	0.0	0.0	0.013	-0.019	
0.0	0.0	0.0	0.0	0.0	0.013	-0.064	
1.0	0.0	0.0	0.0	0.0	-0.003	-0.083	
2.0	0.0	0.0	0.0	0.0	-0.003	-0.105	
3.0	0.0	0.0	0.0	0.0	-0.016	-0.201	
4.0	0.0	0.0	0.0	0.0	-0.022	-0.208	
5.0	0.0	0.0	0.0	0.0	-0.013	-0.284	
6.0	0.0	0.0	0.0	0.0	0.01	-0.153	
7.0	0.0	0.0	0.0	0.0	0.022	0.042	
8.0	0.0	0.0	0.0	0.0	0.019	0.163	
9.0	0.0	0.0	0.0	0.0	0.01	0.035	
10.0	0.0	0.0	0.0	0.0	0.0	-0.006	
11.0	0.0	0.0	0.0	0.0	0.003	0.131	
12.0	0.0	0.0	0.0	0.0	0.003	-0.029	
13.0	0.0	0.0	0.0	0.0	0.013	-0.022	
14.0	0.0	0.0	0.0	0.0	0.006	0.01	
15.0	0.0	0.0	0.0	0.0	0.003	-0.01	
0.0	0.0	0.0	0.0	0.0	-0.006	0.128	
1.0	0.0	0.0	0.0	0.0	-0.013	-0.057	
2.0	0.0	0.0	0.0	0.0	0.006	-0.24	
3.0	0.0	0.0	0.0	0.0	0.003	-0.323	
4.0	0.0	0.0	0.0	0.0	-0.003	-0.089	
5.0	0.0	0.0	0.0	0.0	-0.01	0.147	
6.0	0.0	0.0	0.0	0.0	-0.019	0.144	
7.0	0.0	0.0	0.0	0.0	-0.022	0.105	
8.0	0.0	0.0	0.0	0.0	-0.022	0.249	
9.0	0.0	0.0	0.0	0.0	-0.01	0.185	
10.0	0.0	0.0	0.0	0.0	-0.013	-0.064	
11.0	0.0	0.0	0.0	0.0	-0.006	-0.105	
12.0	0.0	0.0	0.0	0.0	0.006	-0.032	
13.0	0.0	0.0	0.0	0.0	0.003	-0.128	
14.0	0.0	0.0	0.0	0.0	0.006	-0.128	
15.0	0.0	0.0	0.0	0.0	0.01	-0.083	
0.0	0.0	0.0	0.0	0.0	-0.003	-0.08	
1.0	0.0	0.0	0.0	0.0	0.003	0.128	
2.0	0.0	0.0	0.0	0.0	0.016	0.115	
3.0	0.0	0.0	0.0	0.0	0.01	-0.195	
4.0	0.0	0.0	0.0	0.0	0.01	-0.051	
5.0	0.0	0.0	0.0	0.0	0.003	-0.073	
6.0	0.0	0.0	0.0	0.0	-0.016	0.0	
7.0	0.0	0.0	0.0	0.0	-0.013	0.083	
8.0	0.0	0.0	0.0	0.0	-0.003	0.038	
9.0	0.0	0.0	0.0	0.0	0.006	0.01	
10.0	0.0	0.0	0.0	0.0	0.003	-0.042	
11.0	0.0	0.0	0.0	0.0	0.01	-0.019	
12.0	0.0	0.0	0.0	0.0	-0.003	-0.035	
13.0	0.0	0.0	0.0	0.0	-0.019	-0.057	
14.0	0.0	0.0	0.0	0.0	-0.026	-0.045	
15.0	0.0	0.0	0.0	0.0	-0.026	-0.019	
0.0	0.0	0.0	0.0	0.0	-0.006	-0.048	
1.0	0.0	0.0	0.0	0.0	0.003	0.038	
2.0	0.0	0.0	0.0	0.0	0.003	0.192	
3.0	0.0	0.0	0.0	0.0	0.026	-0.01	
4.0	0.0	0.0	0.0	0.0	0.022	-0.054	
5.0	0.0	0.0	0.0	0.0	0.038	-0.051	
6.0	0.0	0.0	0.0	0.0	0.026	-0.048	
7.0	0.0	0.0	0.0	0.0	0.016	-0.054	
8.0	0.0	0.0	0.0	0.0	-0.013	-0.061	
9.0	0.0	0.0	0.0	0.0	-0.029	-0.089	
10.0	0.0	0.0	0.0	0.0	-0.029	-0.042	
11.0	0.0	0.0	0.0	0.0	-0.032	-0.032	
12.0	0.0	0.0	0.0	0.0	-0.013	-0.061	
13.0	0.0	0.0	0.0	0.0	0.0	-0.01	
14.0	0.0	0.0	0.0	0.0	-0.016	0.045	
15.0	0.0	0.0	0.0	0.0	-0.019	0.022	
0.0	0.0	0.0	0.0	0.0	-0.032	0.07	
1.0	0.0	0.0	0.0	0.0	-0.032	-0.08	
2.0	0.0	0.0	0.0	0.0	-0.029	-0.208	
3.0	0.0	0.0	0.0	0.0	-0.003	-0.089	
4.0	0.0	0.0	0.0	0.0	0.026	0.287	
5.0	0.0	0.0	0.0	0.0	0.045	0.192	
6.0	0.0	0.0	0.0	0.0	0.054	-0.006	
7.0	0.0	0.0	0.0	0.0	0.042	-0.029	
8.0	0.0	0.0	0.0	0.0	0.029	-0.089	
9.0	0.0	0.0	0.0	0.0	0.038	-0.137	
10.0	0.0	0.0	0.0	0.0	0.019	-0.054	
11.0	0.0	0.0	0.0	0.0	0.01	-0.109	
12.0	0.0	0.0	0.0	0.0	-0.01	0.131	
13.0	0.0	0.0	0.0	0.0	-0.022	0.121	
14.0	0.0	0.0	0.0	0.0	-0.016	-0.045	
15.0	0.0	0.0	0.0	0.0	-0.016	-0.042	
0.0	0.0	0.0	0.0	0.0	-0.013	-0.089	
1.0	0.0	0.0	0.0	0.0	-0.01	-0.402	
2.0	0.0	0.0	0.0	0.0	-0.032	0.01	
3.0	0.0	0.0	0.0	0.0	-0.032	0.3	
4.0	0.0	0.0	0.0	0.0	-0.022	0.077	
5.0	0.0	0.0	0.0	0.0	-0.006	-0.064	
6.0	0.0	0.0	0.0	0.0	-0.013	0.013	
7.0	0.0	0.0	0.0	0.0	0.0	-0.048	
8.0	0.0	0.0	0.0	0.0	-0.003	-0.048	
9.0	0.0	0.0	0.0	0.0	0.013	-0.109	
10.0	0.0	0.0	0.0	0.0	0.01	-0.15	
11.0	0.0	0.0	0.0	0.0	0.013	0.099	
12.0	0.0	0.0	0.0	0.0	0.019	0.252	
13.0	0.0	0.0	0.0	0.0	0.013	0.281	
14.0	0.0	0.0	0.0	0.0	-0.003	-0.026	
15.0	0.0	0.0	0.0	0.0	0.0	-0.249	
0.0	0.0	0.0	0.0	0.0	0.0	-0.227	
1.0	0.0	0.0	0.0	0.0	-0.003	-0.169	
2.0	0.0	0.0	0.0	0.0	0.01	0.026	
3.0	0.0	0.0	0.0	0.0	0.003	0.089	
4.0	0.0	0.0	0.0	0.0	0.0	0.003	
5.0	0.0	0.0	0.0	0.0	-0.003	-0.022	
6.0	0.0	0.0	0.0	0.0	-0.013	-0.029	
7.0	0.0	0.0	0.0	0.0	0.01	-0.038	
8.0	0.0	0.0	0.0	0.0	0.019	-0.038	
9.0	0.0	0.0	0.0	0.0	0.016	-0.035	
10.0	0.0	0.0	0.0	0.0	0.01	-0.019	
11.0	0.0	0.0	0.0	0.0	-0.003	-0.022	
12.0	0.0	0.0	0.0	0.0	-0.013	0.038	
13.0	0.0	0.0	0.0	0.0	-0.019	0.064	
14.0	0.0	0.0	0.0	0.0	-0.016	-0.01	
15.0	0.0	0.0	0.0	0.0	-0.006	-0.022	
0.0	0.0	0.0	0.0	0.0	-0.013	-0.054	
1.0	0.0	0.0	0.0	0.0	-0.006	-0.032	
2.0	0.0	0.0	0.0	0.0	-0.01	-0.026	
3.0	0.0	0.0	0.0	0.0	-0.01	-0.019	
4.0	0.0	0.0	0.0	0.0	-0.01	-0.013	
5.0	0.0	0.0	0.0	0.0	-0.013	-0.013	
6.0	0.0	0.0	0.0	0.0	-0.003	-0.026	
7.0	0.0	0.0	0.0	0.0	-0.013	-0.022	
8.0	0.0	0.0	0.0	0.0	-0.013	-0.029	
9.0	0.0	0.0	0.0	0.0	-0.006	-0.026	
10.0	0.0	0.0	0.0	0.0	0.01	-0.035	
11.0	0.0	0.0	0.0	0.0	0.006	0.013	
12.0	0.0	0.0	0.0	0.0	0.016	-0.029	
13.0	0.0	0.0	0.0	0.0	0.019	-0.064	
14.0	0.0	0.0	0.0	0.0	0.022	-0.016	
15.0	0.0	0.0	0.0	0.0	0.016	0.099	
0.0	0.0	0.0	0.0	0.0	0.003	0.118	
1.0	0.0	0.0	0.0	0.0	-0.019	0.029	
2.0	0.0	0.0	0.0	0.0	-0.032	-0.067	
3.0	0.0	0.0	0.0	0.0	-0.029	-0.077	
4.0	0.0	0.0	0.0	0.0	-0.026	-0.121	
5.0	0.0	0.0	0.0	0.0	-0.032	0.0	
6.0	0.0	0.0	0.0	0.0	-0.019	0.032	
7.0	0.0	0.0	0.0	0.0	-0.013	0.048	
8.0	0.0	0.0	0.0	0.0	0.019	0.07	
9.0	0.0	0.0	0.0	0.0	0.038	-0.147	
10.0	0.0	0.0	0.0	0.0	0.048	-0.252	
11.0	0.0	0.0	0.0	0.0	0.061	-0.23	
12.0	0.0	0.0	0.0	0.0	0.061	-0.048	
13.0	0.0	0.0	0.0	0.0	0.048	-0.086	
14.0	0.0	0.0	0.0	0.0	0.019	0.048	
15.0	0.0	0.0	0.0	0.0	-0.006	0.185	
0.0	0.0	0.0	0.0	0.0	-0.026	0.316	
1.0	0.0	0.0	0.0	0.0	-0.019	0.204	
2.0	0.0	0.0	0.0	0.0	-0.029	0.121	
3.0	0.0	0.0	0.0	0.0	-0.029	-0.061	
4.0	0.0	0.0	0.0	0.0	-0.032	-0.153	
5.0	0.0	0.0	0.0	0.0	-0.013	-0.128	
6.0	0.0	0.0	0.0	0.0	-0.019	-0.105	
7.0	0.0	0.0	0.0	0.0	0.003	-0.121	
8.0	0.0	0.0	0.0	0.0	0.0	-0.054	
9.0	0.0	0.0	0.0	0.0	0.003	0.042	
10.0	0.0	0.0	0.0	0.0	0.013	-0.003	
11.0	0.0	0.0	0.0	0.0	0.022	-0.051	
12.0	0.0	0.0	0.0	0.0	-0.013	0.294	
13.0	0.0	0.0	0.0	0.0	-0.013	0.073	
14.0	0.0	0.0	0.0	0.0	-0.016	-0.217	
15.0	0.0	0.0	0.0	0.0	-0.022	-0.182	
0.0	0.0	0.0	0.0	0.0	-0.019	0.137	
1.0	0.0	0.0	0.0	0.0	-0.013	-0.003	
2.0	0.0	0.0	0.0	0.0	-0.006	-0.029	
3.0	0.0	0.0	0.0	0.0	-0.003	0.016	
4.0	0.0	0.0	0.0	0.0	-0.003	0.006	
5.0	0.0	0.0	0.0	0.0	0.0	-0.115	
6.0	0.0	0.0	0.0	0.0	0.003	-0.131	
7.0	0.0	0.0	0.0	0.0	0.006	-0.003	
8.0	0.0	0.0	0.0	0.0	0.01	-0.093	
9.0	0.0	0.0	0.0	0.0	0.003	-0.217	
10.0	0.0	0.0	0.0	0.0	0.013	0.022	
11.0	0.0	0.0	0.0	0.0	-0.003	0.051	
12.0	0.0	0.0	0.0	0.0	-0.01	-0.153	
13.0	0.0	0.0	0.0	0.0	0.013	-0.038	
14.0	0.0	0.0	0.0	0.0	0.006	0.15	
15.0	0.0	0.0	0.0	0.0	0.006	0.201	
0.0	0.0	0.0	0.0	0.0	0.013	0.042	
1.0	0.0	0.0	0.0	0.0	-0.013	-0.019	
2.0	0.0	0.0	0.0	0.0	-0.016	0.073	
3.0	0.0	0.0	0.0	0.0	-0.003	-0.013	
4.0	0.0	0.0	0.0	0.0	-0.003	-0.102	
5.0	0.0	0.0	0.0	0.0	-0.013	-0.057	
6.0	0.0	0.0	0.0	0.0	-0.01	-0.013	
7.0	0.0	0.0	0.0	0.0	-0.026	-0.016	
8.0	0.0	0.0	0.0	0.0	-0.029	-0.045	
9.0	0.0	0.0	0.0	0.0	-0.026	-0.003	
10.0	0.0	0.0	0.0	0.0	-0.003	0.038	
11.0	0.0	0.0	0.0	0.0	0.013	0.042	
12.0	0.0	0.0	0.0	0.0	0.022	-0.019	
13.0	0.0	0.0	0.0	0.0	0.035	0.01	
14.0	0.0	0.0	0.0	0.0	0.022	-0.086	
15.0	0.0	0.0	0.0	0.0	0.038	-0.042	
0.0	0.0	0.0	0.0	0.0	0.032	-0.182	
1.0	0.0	0.0	0.0	0.0	0.026	-0.128	
2.0	0.0	0.0	0.0	0.0	0.022	-0.016	
3.0	0.0	0.0	0.0	0.0	-0.016	-0.026	
4.0	0.0	0.0	0.0	0.0	-0.029	0.096	
5.0	0.0	0.0	0.0	0.0	-0.032	0.01	
6.0	0.0	0.0	0.0	0.0	-0.022	0.0	
7.0	0.0	0.0	0.0	0.0	-0.006	-0.032	
8.0	0.0	0.0	0.0	0.0	-0.013	-0.035	
9.0	0.0	0.0	0.0	0.0	0.003	-0.003	
10.0	0.0	0.0	0.0	0.0	-0.006	0.057	
11.0	0.0	0.0	0.0	0.0	0.01	0.121	
12.0	0.0	0.0	0.0	0.0	-0.003	0.061	
13.0	0.0	0.0	0.0	0.0	0.0	-0.013	
14.0	0.0	0.0	0.0	0.0	0.0	-0.086	
15.0	0.0	0.0	0.0	0.0	-0.01	0.022	
0.0	0.0	0.0	0.0	0.0	-0.003	-0.131	
1.0	0.0	0.0	0.0	0.0	0.003	-0.115	
2.0	0.0	0.0	0.0	0.0	0.006	-0.102	
3.0	0.0	0.0	0.0	0.0	0.01	-0.096	
4.0	0.0	0.0	0.0	0.0	0.01	0.035	
5.0	0.0	0.0	0.0	0.0	-0.006	0.08	
6.0	0.0	0.0	0.0	0.0	-0.003	0.064	
7.0	0.0	0.0	0.0	0.0	0.003	0.128	
8.0	0.0	0.0	0.0	0.0	-0.003	-0.01	
9.0	0.0	0.0	0.0	0.0	-0.006	-0.022	
10.0	0.0	0.0	0.0	0.0	-0.006	-0.064	
11.0	0.0	0.0	0.0	0.0	-0.013	-0.128	
12.0	0.0	0.0	0.0	0.0	-0.006	-0.134	
13.0	0.0	0.0	0.0	0.0	-0.003	-0.112	
14.0	0.0	0.0	0.0	0.0	-0.006	-0.201	
15.0	0.0	0.0	0.0	0.0	-0.01	0.326	
0.0	0.0	0.0	0.0	0.0	0.003	0.252	
1.0	0.0	0.0	0.0	0.0	0.019	-0.038	
2.0	0.0	0.0	0.0	0.0	0.01	-0.073	
3.0	0.0	0.0	0.0	0.0	0.006	-0.233	
4.0	0.0	0.0	0.0	0.0	0.0	-0.121	
5.0	0.0	0.0	0.0	0.0	-0.006	0.169	
6.0	0.0	0.0	0.0	0.0	-0.019	0.131	
7.0	0.0	0.0	0.0	0.0	-0.022	-0.038	
8.0	0.0	0.0	0.0	0.0	-0.019	-0.051	
9.0	0.0	0.0	0.0	0.0	0.0	-0.048	
10.0	0.0	0.0	0.0	0.0	0.022	-0.026	
11.0	0.0	0.0	0.0	0.0	0.029	0.013	
12.0	0.0	0.0	0.0	0.0	0.048	0.022	
13.0	0.0	0.0	0.0	0.0	0.048	-0.013	
14.0	0.0	0.0	0.0	0.0	0.022	-0.077	
15.0	0.0	0.0	0.0	0.0	-0.026	-0.109	
0.0	0.0	0.0	0.0	0.0	-0.035	0.035	
1.0	0.0	0.0	0.0	0.0	-0.045	0.035	
2.0	0.0	0.0	0.0	0.0	-0.042	-0.061	
3.0	0.0	0.0	0.0	0.0	-0.032	0.112	
4.0	0.0	0.0	0.0	0.0	-0.026	-0.026	
5.0	0.0	0.0	0.0	0.0	-0.013	-0.157	
6.0	0.0	0.0	0.0	0.0	-0.006	-0.141	
7.0	0.0	0.0	0.0	0.0	-0.01	-0.249	
8.0	0.0	0.0	0.0	0.0	0.003	-0.003	
9.0	0.0	0.0	0.0	0.0	0.013	0.208	
10.0	0.0	0.0	0.0	0.0	0.016	0.0	
11.0	0.0	0.0	0.0	0.0	0.006	-0.064	
12.0	0.0	0.0	0.0	0.0	0.01	-0.064	
13.0	0.0	0.0	0.0	0.0	0.0	0.227	
14.0	0.0	0.0	0.0	0.0	0.003	0.093	
15.0	0.0	0.0	0.0	0.0	-0.003	-0.083	
0.0	0.0	0.0	0.0	0.0	0.0	0.022	
1.0	0.0	0.0	0.0	0.0	0.006	-0.128	
2.0	0.0	0.0	0.0	0.0	-0.003	-0.157	
3.0	0.0	0.0	0.0	0.0	-0.01	0.291	
4.0	0.0	0.0	0.0	0.0	0.0	-0.026	
5.0	0.0	0.0	0.0	0.0	0.019	-0.128	
6.0	0.0	0.0	0.0	0.0	0.013	-0.073	
7.0	0.0	0.0	0.0	0.0	-0.003	-0.064	
8.0	0.0	0.0	0.0	0.0	-0.01	-0.042	
9.0	0.0	0.0	0.0	0.0	-0.016	-0.022	
10.0	0.0	0.0	0.0	0.0	-0.022	-0.013	
11.0	0.0	0.0	0.0	0.0	-0.032	0.064	
12.0	0.0	0.0	0.0	0.0	-0.022	0.035	
13.0	0.0	0.0	0.0	0.0	0.0	-0.051	
14.0	0.0	0.0	0.0	0.0	0.013	0.006	
15.0	0.0	0.0	0.0	0.0	0.029	0.099	
0.0	0.0	0.0	0.0	0.0	0.029	0.019	
1.0	0.0	0.0	0.0	0.0	0.035	0.038	
2.0	0.0	0.0	0.0	0.0	0.048	-0.099	
3.0	0.0	0.0	0.0	0.0	0.051	-0.105	
4.0	0.0	0.0	0.0	0.0	0.038	-0.013	
5.0	0.0	0.0	0.0	0.0	0.006	-0.022	
6.0	0.0	0.0	0.0	0.0	-0.013	-0.131	
7.0	0.0	0.0	0.0	0.0	-0.032	0.0	
8.0	0.0	0.0	0.0	0.0	-0.042	-0.051	
9.0	0.0	0.0	0.0	0.0	-0.026	-0.307	
10.0	0.0	0.0	0.0	0.0	-0.032	-0.086	
11.0	0.0	0.0	0.0	0.0	-0.022	0.303	
12.0	0.0	0.0	0.0	0.0	-0.016	0.07	
13.0	0.0	0.0	0.0	0.0	-0.016	-0.07	
14.0	0.0	0.0	0.0	0.0	-0.013	0.042	
15.0	0.0	0.0	0.0	0.0	-0.003	0.057	
0.0	0.0	0.0	0.0	0.0	0.006	0.026	
1.0	0.0	0.0	0.0	0.0	0.006	0.016	
2.0	0.0	0.0	0.0	0.0	0.006	-0.061	
3.0	0.0	0.0	0.0	0.0	0.0	-0.003	
4.0	0.0	0.0	0.0	0.0	-0.01	-0.083	
5.0	0.0	0.0	0.0	0.0	-0.01	-0.083	
6.0	0.0	0.0	0.0	0.0	0.0	-0.032	
7.0	0.0	0.0	0.0	0.0	-0.003	0.067	
8.0	0.0	0.0	0.0	0.0	-0.003	0.0	
9.0	0.0	0.0	0.0	0.0	-0.003	-0.073	
10.0	0.0	0.0	0.0	0.0	-0.006	-0.042	
11.0	0.0	0.0	0.0	0.0	0.0	-0.003	
12.0	0.0	0.0	0.0	0.0	0.006	-0.006	
13.0	0.0	0.0	0.0	0.0	0.013	-0.003	
14.0	0.0	0.0	0.0	0.0	0.006	-0.003	
15.0	0.0	0.0	0.0	0.0	0.003	-0.003	
0.0	0.0	0.0	0.0	0.0	0.003	-0.016	
1.0	0.0	0.0	0.0	0.0	0.003	-0.01	
2.0	0.0	0.0	0.0	0.0	0.006	-0.003	
3.0	0.0	0.0	0.0	0.0	0.003	0.003	
4.0	0.0	0.0	0.0	0.0	0.0	-0.003	
5.0	0.0	0.0	0.0	0.0	0.003	-0.042	
6.0	0.0	0.0	0.0	0.0	0.0	-0.022	
7.0	0.0	0.0	0.0	0.0	0.006	0.003	
8.0	0.0	0.0	0.0	0.0	0.01	0.006	
9.0	0.0	0.0	0.0	0.0	0.01	-0.01	
10.0	0.0	0.0	0.0	0.0	-0.01	-0.073	
11.0	0.0	0.0	0.0	0.0	-0.01	-0.061	
12.0	0.0	0.0	0.0	0.0	-0.013	-0.067	
13.0	0.0	0.0	0.0	0.0	-0.006	-0.051	
14.0	0.0	0.0	0.0	0.0	-0.016	0.006	
15.0	0.0	0.0	0.0	0.0	0.013	0.064	
0.0	0.0	0.0	0.0	0.0	0.01	0.054	
1.0	0.0	0.0	0.0	0.0	-0.019	0.192	
2.0	0.0	0.0	0.0	0.0	-0.042	0.029	
3.0	0.0	0.0	0.0	0.0	-0.026	-0.105	
4.0	0.0	0.0	0.0	0.0	-0.026	-0.185	
5.0	0.0	0.0	0.0	0.0	-0.013	-0.208	
6.0	0.0	0.0	0.0	0.0	0.003	-0.109	
7.0	0.0	0.0	0.0	0.0	0.016	0.042	
8.0	0.0	0.0	0.0	0.0	0.035	0.016	
9.0	0.0	0.0	0.0	0.0	0.038	-0.051	
10.0	0.0	0.0	0.0	0.0	0.019	-0.026	
11.0	0.0	0.0	0.0	0.0	0.01	-0.026	
12.0	0.0	0.0	0.0	0.0	-0.01	0.102	
13.0	0.0	0.0	0.0	0.0	-0.019	0.163	
14.0	0.0	0.0	0.0	0.0	-0.026	0.089	
15.0	0.0	0.0	0.0	0.0	-0.022	-0.042	
0.0	0.0	0.0	0.0	0.0	-0.006	0.15	
1.0	0.0	0.0	0.0	0.0	-0.003	-0.093	
2.0	0.0	0.0	0.0	0.0	-0.013	-0.246	
3.0	0.0	0.0	0.0	0.0	-0.006	-0.105	
4.0	0.0	0.0	0.0	0.0	0.006	0.051	
5.0	0.0	0.0	0.0	0.0	-0.003	0.003	
6.0	0.0	0.0	0.0	0.0	-0.006	-0.089	
7.0	0.0	0.0	0.0	0.0	0.013	-0.032	
8.0	0.0	0.0	0.0	0.0	0.01	-0.029	
9.0	0.0	0.0	0.0	0.0	0.003	-0.045	
10.0	0.0	0.0	0.0	0.0	0.006	-0.121	
11.0	0.0	0.0	0.0	0.0	0.006	-0.125	
12.0	0.0	0.0	0.0	0.0	0.003	-0.182	
13.0	0.0	0.0	0.0	0.0	0.003	0.131	
14.0	0.0	0.0	0.0	0.0	0.003	0.224	
15.0	0.0	0.0	0.0	0.0	0.003	0.077	
0.0	0.0	0.0	0.0	0.0	-0.003	0.246	
1.0	0.0	0.0	0.0	0.0	-0.022	0.217	
2.0	0.0	0.0	0.0	0.0	-0.026	0.121	
3.0	0.0	0.0	0.0	0.0	-0.016	-0.099	
4.0	0.0	0.0	0.0	0.0	-0.026	-0.485	
5.0	0.0	0.0	0.0	0.0	-0.01	-0.185	
6.0	0.0	0.0	0.0	0.0	0.016	0.141	
7.0	0.0	0.0	0.0	0.0	0.026	-0.112	
8.0	0.0	0.0	0.0	0.0	0.022	-0.128	
9.0	0.0	0.0	0.0	0.0	0.016	-0.022	
10.0	0.0	0.0	0.0	0.0	0.003	0.045	
11.0	0.0	0.0	0.0	0.0	-0.013	0.128	
12.0	0.0	0.0	0.0	0.0	-0.006	0.07	
13.0	0.0	0.0	0.0	0.0	0.0	-0.026	
14.0	0.0	0.0	0.0	0.0	0.006	-0.064	
15.0	0.0	0.0	0.0	0.0	0.0	-0.032	
0.0	0.0	0.0	0.0	0.0	0.0	0.038	
1.0	0.0	0.0	0.0	0.0	0.003	0.048	
2.0	0.0	0.0	0.0	0.0	0.0	0.073	
3.0	0.0	0.0	0.0	0.0	-0.016	-0.102	
4.0	0.0	0.0	0.0	0.0	-0.016	-0.188	
5.0	0.0	0.0	0.0	0.0	-0.019	-0.192	
6.0	0.0	0.0	0.0	0.0	-0.006	0.064	
7.0	0.0	0.0	0.0	0.0	0.006	0.105	
8.0	0.0	0.0	0.0	0.0	-0.003	-0.115	
9.0	0.0	0.0	0.0	0.0	-0.013	-0.105	
10.0	0.0	0.0	0.0	0.0	0.006	0.042	
11.0	0.0	0.0	0.0	0.0	-0.003	0.083	
12.0	0.0	0.0	0.0	0.0	-0.003	0.147	
13.0	0.0	0.0	0.0	0.0	0.0	-0.125	
14.0	0.0	0.0	0.0	0.0	0.01	-0.204	
15.0	0.0	0.0	0.0	0.0	0.016	-0.086	
0.0	0.0	0.0	0.0	0.0	0.006	0.029	
1.0	0.0	0.0	0.0	0.0	0.003	0.157	
2.0	0.0	0.0	0.0	0.0	-0.003	0.048	
3.0	0.0	0.0	0.0	0.0	0.006	-0.067	
4.0	0.0	0.0	0.0	0.0	0.006	-0.054	
5.0	0.0	0.0	0.0	0.0	0.0	0.0	
6.0	0.0	0.0	0.0	0.0	-0.013	0.019	
7.0	0.0	0.0	0.0	0.0	-0.022	0.057	
8.0	0.0	0.0	0.0	0.0	-0.026	0.032	
9.0	0.0	0.0	0.0	0.0	-0.032	0.128	
10.0	0.0	0.0	0.0	0.0	-0.029	-0.185	
11.0	0.0	0.0	0.0	0.0	0.0	-0.287	
12.0	0.0	0.0	0.0	0.0	0.0	-0.192	
13.0	0.0	0.0	0.0	0.0	0.01	-0.032	
14.0	0.0	0.0	0.0	0.0	0.006	0.038	
15.0	0.0	0.0	0.0	0.0	0.006	0.054	
0.0	0.0	0.0	0.0	0.0	0.003	0.061	
1.0	0.0	0.0	0.0	0.0	0.006	-0.172	
2.0	0.0	0.0	0.0	0.0	0.003	0.163	
3.0	0.0	0.0	0.0	0.0	0.01	0.227	
4.0	0.0	0.0	0.0	0.0	-0.003	-0.102	
5.0	0.0	0.0	0.0	0.0	-0.006	-0.07	
6.0	0.0	0.0	0.0	0.0	0.003	-0.144	
7.0	0.0	0.0	0.0	0.0	-0.003	-0.086	
8.0	0.0	0.0	0.0	0.0	-0.003	-0.067	
9.0	0.0	0.0	0.0	0.0	-0.003	0.032	
10.0	0.0	0.0	0.0	0.0	0.019	0.172	
11.0	0.0	0.0	0.0	0.0	0.022	0.083	
12.0	0.0	0.0	0.0	0.0	0.019	0.0	
13.0	0.0	0.0	0.0	0.0	0.003	0.073	
14.0	0.0	0.0	0.0	0.0	-0.003	-0.029	
15.0	0.0	0.0	0.0	0.0	-0.003	-0.256	
0.0	0.0	0.0	0.0	0.0	-0.01	0.227	
1.0	0.0	0.0	0.0	0.0	-0.01	0.176	
2.0	0.0	0.0	0.0	0.0	0.013	-0.042	
3.0	0.0	0.0	0.0	0.0	0.022	-0.026	
4.0	0.0	0.0	0.0	0.0	0.01	-0.134	
5.0	0.0	0.0	0.0	0.0	0.003	-0.176	
6.0	0.0	0.0	0.0	0.0	-0.01	-0.045	
7.0	0.0	0.0	0.0	0.0	-0.022	-0.003	
8.0	0.0	0.0	0.0	0.0	-0.019	-0.093	
9.0	0.0	0.0	0.0	0.0	-0.006	-0.166	
10.0	0.0	0.0	0.0	0.0	-0.016	-0.083	
11.0	0.0	0.0	0.0	0.0	-0.022	0.294	
12.0	0.0	0.0	0.0	0.0	-0.022	0.249	
13.0	0.0	0.0	0.0	0.0	0.003	0.115	
14.0	0.0	0.0	0.0	0.0	0.01	-0.089	
15.0	0.0	0.0	0.0	0.0	0.013	-0.102	
0.0	0.0	0.0	0.0	0.0	0.0	-0.102	
1.0	0.0	0.0	0.0	0.0	-0.016	-0.086	
2.0	0.0	0.0	0.0	0.0	-0.003	-0.096	
3.0	0.0	0.0	0.0	0.0	0.0	-0.061	
4.0	0.0	0.0	0.0	0.0	0.003	-0.006	
5.0	0.0	0.0	0.0	0.0	0.0	0.029	
6.0	0.0	0.0	0.0	0.0	-0.019	-0.042	
7.0	0.0	0.0	0.0	0.0	0.0	-0.166	
8.0	0.0	0.0	0.0	0.0	0.006	-0.077	
9.0	0.0	0.0	0.0	0.0	0.019	-0.013	
10.0	0.0	0.0	0.0	0.0	0.0	-0.016	
11.0	0.0	0.0	0.0	0.0	0.013	-0.048	
12.0	0.0	0.0	0.0	0.0	-0.006	0.073	
13.0	0.0	0.0	0.0	0.0	-0.019	-0.026	
14.0	0.0	0.0	0.0	0.0	-0.016	-0.125	
15.0	0.0	0.0	0.0	0.0	-0.01	0.048	
0.0	0.0	0.0	0.0	0.0	0.0	0.16	
1.0	0.0	0.0	0.0	0.0	0.0	0.115	
2.0	0.0	0.0	0.0	0.0	0.003	0.332	
3.0	0.0	0.0	0.0	0.0	0.013	0.204	
4.0	0.0	0.0	0.0	0.0	-0.006	-0.243	
5.0	0.0	0.0	0.0	0.0	0.003	-0.278	
6.0	0.0	0.0	0.0	0.0	0.006	-0.105	
7.0	0.0	0.0	0.0	0.0	0.003	0.141	
8.0	0.0	0.0	0.0	0.0	0.0	-0.016	
9.0	0.0	0.0	0.0	0.0	0.013	-0.083	
10.0	0.0	0.0	0.0	0.0	-0.006	-0.23	
11.0	0.0	0.0	0.0	0.0	-0.013	-0.303	
12.0	0.0	0.0	0.0	0.0	0.013	0.003	
13.0	0.0	0.0	0.0	0.0	0.029	-0.061	
14.0	0.0	0.0	0.0	0.0	0.022	-0.099	
15.0	0.0	0.0	0.0	0.0	-0.006	0.284	
0.0	0.0	0.0	0.0	0.0	-0.022	0.035	
1.0	0.0	0.0	0.0	0.0	-0.029	-0.278	
2.0	0.0	0.0	0.0	0.0	-0.029	-0.048	
3.0	0.0	0.0	0.0	0.0	-0.022	-0.026	
4.0	0.0	0.0	0.0	0.0	-0.003	-0.157	
5.0	0.0	0.0	0.0	0.0	0.003	-0.208	
6.0	0.0	0.0	0.0	0.0	0.0	0.022	
7.0	0.0	0.0	0.0	0.0	-0.006	0.495	
8.0	0.0	0.0	0.0	0.0	0.0	-0.006	
9.0	0.0	0.0	0.0	0.0	0.0	-0.102	
10.0	0.0	0.0	0.0	0.0	0.01	0.227	
11.0	0.0	0.0	0.0	0.0	0.01	0.118	
12.0	0.0	0.0	0.0	0.0	-0.006	0.434	
13.0	0.0	0.0	0.0	0.0	-0.003	0.323	
14.0	0.0	0.0	0.0	0.0	0.01	-0.24	
15.0	0.0	0.0	0.0	0.0	0.022	-0.291	
0.0	0.0	0.0	0.0	0.0	-0.003	-0.093	
1.0	0.0	0.0	0.0	0.0	-0.022	-0.003	
2.0	0.0	0.0	0.0	0.0	-0.01	-0.061	
3.0	0.0	0.0	0.0	0.0	0.01	-0.08	
4.0	0.0	0.0	0.0	0.0	0.013	-0.038	
5.0	0.0	0.0	0.0	0.0	0.006	-0.016	
6.0	0.0	0.0	0.0	0.0	0.003	-0.022	
7.0	0.0	0.0	0.0	0.0	-0.003	-0.224	
8.0	0.0	0.0	0.0	0.0	-0.003	-0.128	
9.0	0.0	0.0	0.0	0.0	0.0	-0.006	
10.0	0.0	0.0	0.0	0.0	-0.006	-0.016	
11.0	0.0	0.0	0.0	0.0	-0.013	0.0	
12.0	0.0	0.0	0.0	0.0	-0.01	-0.064	
13.0	0.0	0.0	0.0	0.0	-0.013	-0.176	
14.0	0.0	0.0	0.0	0.0	0.0	-0.319	
15.0	0.0	0.0	0.0	0.0	0.0	-0.211	
0.0	0.0	0.0	0.0	0.0	-0.006	0.086	
1.0	0.0	0.0	0.0	0.0	-0.01	0.038	
2.0	0.0	0.0	0.0	0.0	-0.032	-0.102	
3.0	0.0	0.0	0.0	0.0	-0.026	-0.019	
4.0	0.0	0.0	0.0	0.0	0.003	0.604	
5.0	0.0	0.0	0.0	0.0	0.013	0.521	
6.0	0.0	0.0	0.0	0.0	0.022	-0.064	
7.0	0.0	0.0	0.0	0.0	0.029	-0.073	
8.0	0.0	0.0	0.0	0.0	0.019	-0.013	
9.0	0.0	0.0	0.0	0.0	0.01	-0.029	
10.0	0.0	0.0	0.0	0.0	0.01	0.006	
11.0	0.0	0.0	0.0	0.0	0.013	0.029	
12.0	0.0	0.0	0.0	0.0	0.01	0.006	
13.0	0.0	0.0	0.0	0.0	0.003	-0.042	
14.0	0.0	0.0	0.0	0.0	-0.01	-0.045	
15.0	0.0	0.0	0.0	0.0	-0.01	-0.195	
0.0	0.0	0.0	0.0	0.0	-0.013	-0.08	
1.0	0.0	0.0	0.0	0.0	-0.026	-0.077	
2.0	0.0	0.0	0.0	0.0	-0.026	0.291	
3.0	0.0	0.0	0.0	0.0	-0.016	-0.262	
4.0	0.0	0.0	0.0	0.0	-0.029	-0.236	
5.0	0.0	0.0	0.0	0.0	-0.048	0.594	
6.0	0.0	0.0	0.0	0.0	-0.038	-0.195	
7.0	0.0	0.0	0.0	0.0	0.006	-0.208	
8.0	0.0	0.0	0.0	0.0	0.029	-0.313	
9.0	0.0	0.0	0.0	0.0	0.032	-0.073	
10.0	0.0	0.0	0.0	0.0	0.019	0.163	
11.0	0.0	0.0	0.0	0.0	0.019	-0.185	
12.0	0.0	0.0	0.0	0.0	0.019	-0.332	
13.0	0.0	0.0	0.0	0.0	0.026	-0.198	
14.0	0.0	0.0	0.0	0.0	0.019	0.176	
15.0	0.0	0.0	0.0	0.0	0.01	0.492	
0.0	0.0	0.0	0.0	0.0	0.019	0.23	
1.0	0.0	0.0	0.0	0.0	0.003	0.016	
2.0	0.0	0.0	0.0	0.0	-0.003	0.003	
3.0	0.0	0.0	0.0	0.0	-0.006	0.022	
4.0	0.0	0.0	0.0	0.0	-0.003	0.064	
5.0	0.0	0.0	0.0	0.0	-0.006	0.08	
6.0	0.0	0.0	0.0	0.0	-0.019	0.089	
7.0	0.0	0.0	0.0	0.0	-0.019	0.026	
8.0	0.0	0.0	0.0	0.0	-0.022	0.01	
9.0	0.0	0.0	0.0	0.0	-0.016	0.01	
10.0	0.0	0.0	0.0	0.0	-0.016	-0.278	
11.0	0.0	0.0	0.0	0.0	-0.022	-0.661	
12.0	0.0	0.0	0.0	0.0	-0.013	-0.725	
13.0	0.0	0.0	0.0	0.0	0.003	0.086	
14.0	0.0	0.0	0.0	0.0	0.022	-0.013	
15.0	0.0	0.0	0.0	0.0	0.026	-0.335	
0.0	0.0	0.0	0.0	0.0	0.0	-0.109	
1.0	0.0	0.0	0.0	0.0	-0.022	0.533	
2.0	0.0	0.0	0.0	0.0	0.003	0.505	
3.0	0.0	0.0	0.0	0.0	0.006	0.179	
4.0	0.0	0.0	0.0	0.0	0.01	-0.169	
5.0	0.0	0.0	0.0	0.0	0.0	0.112	
6.0	0.0	0.0	0.0	0.0	-0.01	0.157	
7.0	0.0	0.0	0.0	0.0	0.003	-0.137	
8.0	0.0	0.0	0.0	0.0	0.003	-0.335	
9.0	0.0	0.0	0.0	0.0	-0.003	-0.543	
10.0	0.0	0.0	0.0	0.0	-0.01	-0.252	
11.0	0.0	0.0	0.0	0.0	-0.006	0.093	
12.0	0.0	0.0	0.0	0.0	0.01	0.032	
13.0	0.0	0.0	0.0	0.0	0.0	0.313	
14.0	0.0	0.0	0.0	0.0	0.0	0.144	
15.0	0.0	0.0	0.0	0.0	0.006	0.473	
0.0	0.0	0.0	0.0	0.0	-0.016	0.591	
1.0	0.0	0.0	0.0	0.0	-0.016	-0.057	
2.0	0.0	0.0	0.0	0.0	-0.026	0.073	
3.0	0.0	0.0	0.0	0.0	-0.006	0.099	
4.0	0.0	0.0	0.0	0.0	-0.019	-0.339	
5.0	0.0	0.0	0.0	0.0	-0.035	-0.92	
6.0	0.0	0.0	0.0	0.0	-0.026	-0.786	
7.0	0.0	0.0	0.0	0.0	-0.013	0.556	
8.0	0.0	0.0	0.0	0.0	0.048	0.457	
9.0	0.0	0.0	0.0	0.0	0.093	0.559	
10.0	0.0	0.0	0.0	0.0	0.064	0.198	
11.0	0.0	0.0	0.0	0.0	0.042	0.182	
12.0	0.0	0.0	0.0	0.0	0.013	0.077	
13.0	0.0	0.0	0.0	0.0	0.006	-0.23	
14.0	0.0	0.0	0.0	0.0	0.019	-0.153	
15.0	0.0	0.0	0.0	0.0	0.051	-0.131	
0.0	0.0	0.0	0.0	0.0	0.022	-0.115	
1.0	0.0	0.0	0.0	0.0	0.0	-0.073	
2.0	0.0	0.0	0.0	0.0	-0.029	-0.045	
3.0	0.0	0.0	0.0	0.0	-0.038	-0.048	
4.0	0.0	0.0	0.0	0.0	-0.042	-0.054	
5.0	0.0	0.0	0.0	0.0	-0.045	-0.064	
6.0	0.0	0.0	0.0	0.0	-0.051	-0.061	
7.0	0.0	0.0	0.0	0.0	-0.045	-0.064	
8.0	0.0	0.0	0.0	0.0	-0.035	-0.07	
9.0	0.0	0.0	0.0	0.0	-0.022	-0.067	
10.0	0.0	0.0	0.0	0.0	0.0	-0.057	
11.0	0.0	0.0	0.0	0.0	-0.003	-0.061	
12.0	0.0	0.0	0.0	0.0	-0.006	-0.099	
13.0	0.0	0.0	0.0	0.0	-0.019	-0.096	
14.0	0.0	0.0	0.0	0.0	-0.022	-0.086	
15.0	0.0	0.0	0.0	0.0	-0.022	-0.093	
0.0	0.0	0.0	0.0	0.0	-0.016	-0.067	
1.0	0.0	0.0	0.0	0.0	-0.013	-0.006	
2.0	0.0	0.0	0.0	0.0	-0.013	0.051	
3.0	0.0	0.0	0.0	0.0	-0.013	0.08	
4.0	0.0	0.0	0.0	0.0	0.003	0.083	
5.0	0.0	0.0	0.0	0.0	0.019	0.057	
6.0	0.0	0.0	0.0	0.0	0.029	0.029	
7.0	0.0	0.0	0.0	0.0	0.029	0.032	
8.0	0.0	0.0	0.0	0.0	0.022	0.013	
9.0	0.0	0.0	0.0	0.0	0.022	-0.022	
10.0	0.0	0.0	0.0	0.0	0.019	-0.035	
11.0	0.0	0.0	0.0	0.0	0.026	-0.048	
12.0	0.0	0.0	0.0	0.0	0.01	0.0	
13.0	0.0	0.0	0.0	0.0	-0.003	0.086	
14.0	0.0	0.0	0.0	0.0	-0.003	-0.026	
15.0	0.0	0.0	0.0	0.0	-0.013	-0.096	
0.0	0.0	0.0	0.0	0.0	-0.013	-0.144	
1.0	0.0	0.0	0.0	0.0	-0.016	-0.345	
2.0	0.0	0.0	0.0	0.0	-0.032	-0.696	
3.0	0.0	0.0	0.0	0.0	-0.019	-0.85	
4.0	0.0	0.0	0.0	0.0	-0.038	-0.339	
5.0	0.0	0.0	0.0	0.0	-0.029	0.658	
6.0	0.0	0.0	0.0	0.0	-0.006	0.99	
7.0	0.0	0.0	0.0	0.0	0.029	0.402	
8.0	0.0	0.0	0.0	0.0	0.022	0.533	
9.0	0.0	0.0	0.0	0.0	0.022	0.345	
10.0	0.0	0.0	0.0	0.0	0.026	0.31	
11.0	0.0	0.0	0.0	0.0	0.029	-0.137	
12.0	0.0	0.0	0.0	0.0	0.016	-0.358	
13.0	0.0	0.0	0.0	0.0	0.026	-0.607	
14.0	0.0	0.0	0.0	0.0	0.022	-0.268	
15.0	0.0	0.0	0.0	0.0	0.0	0.454	
0.0	0.0	0.0	0.0	0.0	-0.003	0.061	
1.0	0.0	0.0	0.0	0.0	0.013	0.105	
2.0	0.0	0.0	0.0	0.0	0.013	0.195	
3.0	0.0	0.0	0.0	0.0	0.003	0.003	
4.0	0.0	0.0	0.0	0.0	-0.006	-0.051	
5.0	0.0	0.0	0.0	0.0	-0.013	0.07	
6.0	0.0	0.0	0.0	0.0	-0.022	0.045	
7.0	0.0	0.0	0.0	0.0	-0.022	0.144	
8.0	0.0	0.0	0.0	0.0	-0.045	-0.418	
9.0	0.0	0.0	0.0	0.0	-0.051	-0.687	
10.0	0.0	0.0	0.0	0.0	-0.038	-0.47	
11.0	0.0	0.0	0.0	0.0	-0.026	-0.546	
12.0	0.0	0.0	0.0	0.0	-0.038	-0.492	
13.0	0.0	0.0	0.0	0.0	-0.013	-0.323	
14.0	0.0	0.0	0.0	0.0	0.032	0.121	
15.0	0.0	0.0	0.0	0.0	0.054	0.639	
0.0	0.0	0.0	0.0	0.0	0.038	-0.057	
1.0	0.0	0.0	0.0	0.0	0.003	0.818	
2.0	0.0	0.0	0.0	0.0	0.01	1.07	
3.0	0.0	0.0	0.0	0.0	0.045	0.099	
4.0	0.0	0.0	0.0	0.0	0.067	-0.332	
5.0	0.0	0.0	0.0	0.0	0.07	-0.284	
6.0	0.0	0.0	0.0	0.0	0.022	-0.019	
7.0	0.0	0.0	0.0	0.0	-0.019	-0.128	
8.0	0.0	0.0	0.0	0.0	-0.026	0.15	
9.0	0.0	0.0	0.0	0.0	-0.022	0.514	
10.0	0.0	0.0	0.0	0.0	-0.01	0.22	
11.0	0.0	0.0	0.0	0.0	0.0	-0.099	
12.0	0.0	0.0	0.0	0.0	-0.006	-0.125	
13.0	0.0	0.0	0.0	0.0	-0.019	-0.064	
14.0	0.0	0.0	0.0	0.0	-0.026	-0.013	
15.0	0.0	0.0	0.0	0.0	-0.029	0.003	
0.0	0.0	0.0	0.0	0.0	-0.045	-0.16	
1.0	0.0	0.0	0.0	0.0	-0.038	-0.134	
2.0	0.0	0.0	0.0	0.0	-0.038	-0.31	
3.0	0.0	0.0	0.0	0.0	-0.048	-0.249	
4.0	0.0	0.0	0.0	0.0	-0.073	-0.418	
5.0	0.0	0.0	0.0	0.0	-0.067	-0.709	
6.0	0.0	0.0	0.0	0.0	-0.048	-0.294	
7.0	0.0	0.0	0.0	0.0	0.019	-0.061	
8.0	0.0	0.0	0.0	0.0	0.054	0.591	
9.0	0.0	0.0	0.0	0.0	0.061	0.607	
10.0	0.0	0.0	0.0	0.0	0.089	0.521	
11.0	0.0	0.0	0.0	0.0	0.118	-0.038	
12.0	0.0	0.0	0.0	0.0	0.096	-0.24	
13.0	0.0	0.0	0.0	0.0	0.051	-0.246	
14.0	0.0	0.0	0.0	0.0	0.01	-0.134	
15.0	0.0	0.0	0.0	0.0	-0.013	0.08	
0.0	0.0	0.0	0.0	0.0	-0.026	0.096	
1.0	0.0	0.0	0.0	0.0	-0.026	-0.144	
2.0	0.0	0.0	0.0	0.0	-0.035	0.022	
3.0	0.0	0.0	0.0	0.0	-0.032	0.418	
4.0	0.0	0.0	0.0	0.0	-0.022	0.233	
5.0	0.0	0.0	0.0	0.0	-0.029	0.029	
6.0	0.0	0.0	0.0	0.0	-0.032	-0.137	
7.0	0.0	0.0	0.0	0.0	-0.038	-0.115	
8.0	0.0	0.0	0.0	0.0	-0.032	-0.441	
9.0	0.0	0.0	0.0	0.0	-0.038	-0.722	
10.0	0.0	0.0	0.0	0.0	-0.057	-0.827	
11.0	0.0	0.0	0.0	0.0	-0.077	-0.319	
12.0	0.0	0.0	0.0	0.0	-0.07	-0.192	
13.0	0.0	0.0	0.0	0.0	-0.016	0.393	
14.0	0.0	0.0	0.0	0.0	0.032	0.69	
15.0	0.0	0.0	0.0	0.0	0.054	0.942	
0.0	0.0	0.0	0.0	0.0	0.054	0.214	
1.0	0.0	0.0	0.0	0.0	0.045	0.69	
2.0	0.0	0.0	0.0	0.0	0.07	0.201	
3.0	0.0	0.0	0.0	0.0	0.099	0.185	
4.0	0.0	0.0	0.0	0.0	0.099	0.077	
5.0	0.0	0.0	0.0	0.0	0.051	-0.179	
6.0	0.0	0.0	0.0	0.0	0.01	-0.326	
7.0	0.0	0.0	0.0	0.0	-0.006	-0.233	
8.0	0.0	0.0	0.0	0.0	-0.029	-0.134	
9.0	0.0	0.0	0.0	0.0	-0.026	-0.137	
10.0	0.0	0.0	0.0	0.0	-0.026	0.013	
11.0	0.0	0.0	0.0	0.0	-0.016	-0.048	
12.0	0.0	0.0	0.0	0.0	-0.022	-0.134	
13.0	0.0	0.0	0.0	0.0	-0.016	-0.099	
14.0	0.0	0.0	0.0	0.0	-0.006	-0.048	
15.0	0.0	0.0	0.0	0.0	-0.006	-0.019	
0.0	0.0	0.0	0.0	0.0	-0.013	0.026	
1.0	0.0	0.0	0.0	0.0	-0.016	-0.042	
2.0	0.0	0.0	0.0	0.0	-0.016	-0.093	
3.0	0.0	0.0	0.0	0.0	-0.016	-0.064	
4.0	0.0	0.0	0.0	0.0	-0.019	-0.042	
5.0	0.0	0.0	0.0	0.0	-0.013	-0.169	
6.0	0.0	0.0	0.0	0.0	-0.026	-0.256	
7.0	0.0	0.0	0.0	0.0	-0.022	-0.204	
8.0	0.0	0.0	0.0	0.0	-0.013	-0.163	
9.0	0.0	0.0	0.0	0.0	-0.003	-0.131	
10.0	0.0	0.0	0.0	0.0	-0.006	-0.115	
11.0	0.0	0.0	0.0	0.0	-0.013	-0.035	
12.0	0.0	0.0	0.0	0.0	-0.019	0.204	
13.0	0.0	0.0	0.0	0.0	-0.016	0.297	
14.0	0.0	0.0	0.0	0.0	-0.016	-0.38	
15.0	0.0	0.0	0.0	0.0	-0.003	-0.537	
0.0	0.0	0.0	0.0	0.0	-0.003	-0.23	
1.0	0.0	0.0	0.0	0.0	0.0	0.278	
2.0	0.0	0.0	0.0	0.0	-0.01	0.045	
3.0	0.0	0.0	0.0	0.0	-0.019	-0.297	
4.0	0.0	0.0	0.0	0.0	-0.013	0.319	
5.0	0.0	0.0	0.0	0.0	0.003	0.77	
6.0	0.0	0.0	0.0	0.0	0.029	0.086	
7.0	0.0	0.0	0.0	0.0	0.01	-0.789	
8.0	0.0	0.0	0.0	0.0	-0.003	-0.652	
9.0	0.0	0.0	0.0	0.0	-0.029	1.124	
10.0	0.0	0.0	0.0	0.0	-0.01	0.731	
11.0	0.0	0.0	0.0	0.0	0.042	-0.195	
12.0	0.0	0.0	0.0	0.0	0.077	0.648	
13.0	0.0	0.0	0.0	0.0	0.096	0.792	
14.0	0.0	0.0	0.0	0.0	0.096	-0.032	
15.0	0.0	0.0	0.0	0.0	0.093	-0.099	
0.0	0.0	0.0	0.0	0.0	0.08	-0.118	
1.0	0.0	0.0	0.0	0.0	0.038	0.054	
2.0	0.0	0.0	0.0	0.0	-0.003	0.029	
3.0	0.0	0.0	0.0	0.0	-0.016	-0.137	
4.0	0.0	0.0	0.0	0.0	-0.042	-0.118	
5.0	0.0	0.0	0.0	0.0	-0.054	-0.112	
6.0	0.0	0.0	0.0	0.0	-0.054	-0.655	
7.0	0.0	0.0	0.0	0.0	-0.054	-0.699	
8.0	0.0	0.0	0.0	0.0	-0.054	-0.16	
9.0	0.0	0.0	0.0	0.0	-0.048	-0.013	
10.0	0.0	0.0	0.0	0.0	-0.029	-0.172	
11.0	0.0	0.0	0.0	0.0	-0.026	-0.444	
12.0	0.0	0.0	0.0	0.0	-0.022	-0.089	
13.0	0.0	0.0	0.0	0.0	-0.029	0.584	
14.0	0.0	0.0	0.0	0.0	-0.022	0.457	
15.0	0.0	0.0	0.0	0.0	0.013	0.096	
0.0	0.0	0.0	0.0	0.0	0.051	-0.096	
1.0	0.0	0.0	0.0	0.0	0.067	-0.15	
2.0	0.0	0.0	0.0	0.0	0.045	-0.073	
3.0	0.0	0.0	0.0	0.0	0.003	-0.064	
4.0	0.0	0.0	0.0	0.0	-0.016	-0.077	
5.0	0.0	0.0	0.0	0.0	-0.013	-0.051	
6.0	0.0	0.0	0.0	0.0	-0.026	-0.042	
7.0	0.0	0.0	0.0	0.0	-0.029	-0.022	
8.0	0.0	0.0	0.0	0.0	-0.026	-0.073	
9.0	0.0	0.0	0.0	0.0	-0.029	-0.115	
10.0	0.0	0.0	0.0	0.0	-0.035	-0.195	
11.0	0.0	0.0	0.0	0.0	-0.029	-0.364	
12.0	0.0	0.0	0.0	0.0	0.0	-0.294	
13.0	0.0	0.0	0.0	0.0	-0.003	-0.195	
14.0	0.0	0.0	0.0	0.0	0.006	-0.131	
15.0	0.0	0.0	0.0	0.0	-0.01	0.326	
0.0	0.0	0.0	0.0	0.0	-0.029	0.767	
1.0	0.0	0.0	0.0	0.0	-0.019	0.284	
2.0	0.0	0.0	0.0	0.0	0.006	-0.067	
3.0	0.0	0.0	0.0	0.0	0.022	-0.105	
4.0	0.0	0.0	0.0	0.0	0.022	0.281	
5.0	0.0	0.0	0.0	0.0	0.029	0.527	
6.0	0.0	0.0	0.0	0.0	0.035	0.482	
7.0	0.0	0.0	0.0	0.0	0.035	0.166	
8.0	0.0	0.0	0.0	0.0	0.032	-0.147	
9.0	0.0	0.0	0.0	0.0	0.01	-0.144	
10.0	0.0	0.0	0.0	0.0	-0.003	0.0	
11.0	0.0	0.0	0.0	0.0	-0.019	-0.287	
12.0	0.0	0.0	0.0	0.0	-0.019	-0.476	
13.0	0.0	0.0	0.0	0.0	-0.022	-0.361	
14.0	0.0	0.0	0.0	0.0	-0.042	-0.201	
15.0	0.0	0.0	0.0	0.0	-0.042	-0.543	
0.0	0.0	0.0	0.0	0.0	-0.051	-0.936	
1.0	0.0	0.0	0.0	0.0	-0.019	-0.243	
2.0	0.0	0.0	0.0	0.0	0.032	0.949	
3.0	0.0	0.0	0.0	0.0	0.006	0.393	
4.0	0.0	0.0	0.0	0.0	0.006	0.096	
5.0	0.0	0.0	0.0	0.0	0.038	0.559	
6.0	0.0	0.0	0.0	0.0	0.067	0.374	
7.0	0.0	0.0	0.0	0.0	0.077	0.067	
8.0	0.0	0.0	0.0	0.0	0.061	-0.013	
9.0	0.0	0.0	0.0	0.0	0.038	0.042	
10.0	0.0	0.0	0.0	0.0	-0.003	-0.01	
11.0	0.0	0.0	0.0	0.0	-0.01	-0.051	
12.0	0.0	0.0	0.0	0.0	-0.029	-0.089	
13.0	0.0	0.0	0.0	0.0	-0.029	-0.109	
14.0	0.0	0.0	0.0	0.0	-0.022	-0.102	
15.0	0.0	0.0	0.0	0.0	-0.026	-0.061	
0.0	0.0	0.0	0.0	0.0	-0.022	-0.032	
1.0	0.0	0.0	0.0	0.0	-0.026	0.01	
2.0	0.0	0.0	0.0	0.0	-0.022	0.042	
3.0	0.0	0.0	0.0	0.0	-0.029	0.003	
4.0	0.0	0.0	0.0	0.0	-0.022	-0.013	
5.0	0.0	0.0	0.0	0.0	-0.029	-0.07	
6.0	0.0	0.0	0.0	0.0	-0.035	-0.211	
7.0	0.0	0.0	0.0	0.0	-0.051	-0.31	
8.0	0.0	0.0	0.0	0.0	-0.064	-0.326	
9.0	0.0	0.0	0.0	0.0	-0.026	-0.045	
10.0	0.0	0.0	0.0	0.0	0.029	-0.252	
11.0	0.0	0.0	0.0	0.0	0.057	-0.195	
12.0	0.0	0.0	0.0	0.0	0.042	-0.013	
13.0	0.0	0.0	0.0	0.0	0.022	-0.077	
14.0	0.0	0.0	0.0	0.0	0.006	0.035	
15.0	0.0	0.0	0.0	0.0	0.019	0.719	
0.0	0.0	0.0	0.0	0.0	0.035	0.482	
1.0	0.0	0.0	0.0	0.0	0.054	0.07	
2.0	0.0	0.0	0.0	0.0	0.045	-0.019	
3.0	0.0	0.0	0.0	0.0	0.045	-0.077	
4.0	0.0	0.0	0.0	0.0	0.013	-0.07	
5.0	0.0	0.0	0.0	0.0	-0.006	-0.211	
6.0	0.0	0.0	0.0	0.0	-0.042	-0.313	
7.0	0.0	0.0	0.0	0.0	-0.054	-0.422	
8.0	0.0	0.0	0.0	0.0	-0.067	-0.616	
9.0	0.0	0.0	0.0	0.0	-0.057	-0.882	
10.0	0.0	0.0	0.0	0.0	-0.051	-0.652	
11.0	0.0	0.0	0.0	0.0	-0.073	-0.073	
12.0	0.0	0.0	0.0	0.0	-0.089	0.501	
13.0	0.0	0.0	0.0	0.0	-0.077	1.124	
14.0	0.0	0.0	0.0	0.0	-0.057	1.626	
15.0	0.0	0.0	0.0	0.0	0.022	1.536	
0.0	0.0	0.0	0.0	0.0	0.109	0.077	
1.0	0.0	0.0	0.0	0.0	0.157	-0.508	
2.0	0.0	0.0	0.0	0.0	0.144	-0.802	
3.0	0.0	0.0	0.0	0.0	0.096	0.022	
4.0	0.0	0.0	0.0	0.0	0.07	0.278	
5.0	0.0	0.0	0.0	0.0	0.032	-0.214	
6.0	0.0	0.0	0.0	0.0	0.003	-0.313	
7.0	0.0	0.0	0.0	0.0	-0.022	-0.243	
8.0	0.0	0.0	0.0	0.0	-0.038	-0.339	
9.0	0.0	0.0	0.0	0.0	-0.029	-0.332	
10.0	0.0	0.0	0.0	0.0	-0.038	-0.141	
11.0	0.0	0.0	0.0	0.0	-0.042	-0.051	
12.0	0.0	0.0	0.0	0.0	-0.029	-0.214	
13.0	0.0	0.0	0.0	0.0	-0.038	0.198	
14.0	0.0	0.0	0.0	0.0	-0.064	0.102	
15.0	0.0	0.0	0.0	0.0	-0.054	-0.083	
0.0	0.0	0.0	0.0	0.0	-0.038	-0.099	
1.0	0.0	0.0	0.0	0.0	-0.022	-0.201	
2.0	0.0	0.0	0.0	0.0	-0.016	-0.192	
3.0	0.0	0.0	0.0	0.0	-0.022	-0.415	
4.0	0.0	0.0	0.0	0.0	-0.038	0.099	
5.0	0.0	0.0	0.0	0.0	-0.032	0.358	
6.0	0.0	0.0	0.0	0.0	-0.003	1.099	
7.0	0.0	0.0	0.0	0.0	0.061	0.664	
8.0	0.0	0.0	0.0	0.0	0.125	-0.204	
9.0	0.0	0.0	0.0	0.0	0.128	-0.307	
10.0	0.0	0.0	0.0	0.0	0.102	-0.093	
11.0	0.0	0.0	0.0	0.0	0.067	-0.128	
12.0	0.0	0.0	0.0	0.0	0.029	-0.192	
13.0	0.0	0.0	0.0	0.0	0.003	-0.157	
14.0	0.0	0.0	0.0	0.0	-0.032	0.198	
15.0	0.0	0.0	0.0	0.0	-0.032	0.0	
0.0	0.0	0.0	0.0	0.0	-0.038	-0.134	
1.0	0.0	0.0	0.0	0.0	-0.038	-0.112	
2.0	0.0	0.0	0.0	0.0	-0.032	-0.067	
3.0	0.0	0.0	0.0	0.0	-0.022	-0.093	
4.0	0.0	0.0	0.0	0.0	-0.022	-0.105	
5.0	0.0	0.0	0.0	0.0	-0.022	-0.102	
6.0	0.0	0.0	0.0	0.0	-0.029	-0.064	
7.0	0.0	0.0	0.0	0.0	-0.026	-0.105	
8.0	0.0	0.0	0.0	0.0	-0.019	-0.038	
9.0	0.0	0.0	0.0	0.0	-0.016	0.013	
10.0	0.0	0.0	0.0	0.0	-0.013	0.038	
11.0	0.0	0.0	0.0	0.0	-0.013	0.006	
12.0	0.0	0.0	0.0	0.0	-0.006	0.051	
13.0	0.0	0.0	0.0	0.0	-0.016	0.303	
14.0	0.0	0.0	0.0	0.0	-0.013	0.163	
15.0	0.0	0.0	0.0	0.0	-0.016	-0.185	
0.0	0.0	0.0	0.0	0.0	-0.01	-0.169	
1.0	0.0	0.0	0.0	0.0	0.003	-0.077	
2.0	0.0	0.0	0.0	0.0	0.032	-0.073	
3.0	0.0	0.0	0.0	0.0	0.026	-0.042	
4.0	0.0	0.0	0.0	0.0	0.022	0.022	
5.0	0.0	0.0	0.0	0.0	0.019	-0.003	
6.0	0.0	0.0	0.0	0.0	0.013	-0.026	
7.0	0.0	0.0	0.0	0.0	0.0	-0.048	
8.0	0.0	0.0	0.0	0.0	-0.003	-0.038	
9.0	0.0	0.0	0.0	0.0	0.01	-0.016	
10.0	0.0	0.0	0.0	0.0	0.0	0.019	
11.0	0.0	0.0	0.0	0.0	0.006	0.013	
12.0	0.0	0.0	0.0	0.0	0.0	0.013	
13.0	0.0	0.0	0.0	0.0	-0.006	-0.102	
14.0	0.0	0.0	0.0	0.0	-0.01	-0.364	
15.0	0.0	0.0	0.0	0.0	-0.029	-0.738	
0.0	0.0	0.0	0.0	0.0	-0.029	-0.706	
1.0	0.0	0.0	0.0	0.0	-0.026	-0.616	
2.0	0.0	0.0	0.0	0.0	-0.019	-0.604	
3.0	0.0	0.0	0.0	0.0	-0.029	0.086	
4.0	0.0	0.0	0.0	0.0	-0.042	1.389	
5.0	0.0	0.0	0.0	0.0	-0.042	1.629	
6.0	0.0	0.0	0.0	0.0	-0.038	0.888	
7.0	0.0	0.0	0.0	0.0	0.022	0.303	
8.0	0.0	0.0	0.0	0.0	0.057	0.281	
9.0	0.0	0.0	0.0	0.0	0.083	-0.297	
10.0	0.0	0.0	0.0	0.0	0.08	-0.473	
11.0	0.0	0.0	0.0	0.0	0.054	-0.425	
12.0	0.0	0.0	0.0	0.0	0.045	-0.361	
13.0	0.0	0.0	0.0	0.0	0.019	-0.188	
14.0	0.0	0.0	0.0	0.0	-0.026	-0.089	
15.0	0.0	0.0	0.0	0.0	-0.029	0.144	
0.0	0.0	0.0	0.0	0.0	-0.038	0.69	
1.0	0.0	0.0	0.0	0.0	-0.022	0.096	
2.0	0.0	0.0	0.0	0.0	-0.013	-0.252	
3.0	0.0	0.0	0.0	0.0	-0.01	0.137	
4.0	0.0	0.0	0.0	0.0	-0.026	-0.067	
5.0	0.0	0.0	0.0	0.0	-0.006	-0.195	
6.0	0.0	0.0	0.0	0.0	0.035	-0.549	
7.0	0.0	0.0	0.0	0.0	0.022	-0.326	
8.0	0.0	0.0	0.0	0.0	0.0	-0.121	
9.0	0.0	0.0	0.0	0.0	0.032	-0.367	
10.0	0.0	0.0	0.0	0.0	0.032	-0.355	
11.0	0.0	0.0	0.0	0.0	0.048	-0.153	
12.0	0.0	0.0	0.0	0.0	0.019	0.08	
13.0	0.0	0.0	0.0	0.0	0.0	0.291	
14.0	0.0	0.0	0.0	0.0	-0.016	0.125	
15.0	0.0	0.0	0.0	0.0	-0.022	-0.169	
0.0	0.0	0.0	0.0	0.0	-0.026	-0.204	
1.0	0.0	0.0	0.0	0.0	-0.051	0.3	
2.0	0.0	0.0	0.0	0.0	-0.048	0.444	
3.0	0.0	0.0	0.0	0.0	-0.006	-0.051	
4.0	0.0	0.0	0.0	0.0	-0.006	-0.454	
5.0	0.0	0.0	0.0	0.0	-0.01	-0.345	
6.0	0.0	0.0	0.0	0.0	-0.016	-0.144	
7.0	0.0	0.0	0.0	0.0	-0.01	-0.105	
8.0	0.0	0.0	0.0	0.0	-0.006	0.364	
9.0	0.0	0.0	0.0	0.0	-0.019	0.639	
10.0	0.0	0.0	0.0	0.0	-0.042	0.929	
11.0	0.0	0.0	0.0	0.0	-0.013	0.415	
12.0	0.0	0.0	0.0	0.0	0.029	-0.287	
13.0	0.0	0.0	0.0	0.0	0.048	-0.604	
14.0	0.0	0.0	0.0	0.0	0.042	0.067	
15.0	0.0	0.0	0.0	0.0	0.022	0.061	
0.0	0.0	0.0	0.0	0.0	0.01	-0.335	
1.0	0.0	0.0	0.0	0.0	-0.01	-0.157	
2.0	0.0	0.0	0.0	0.0	-0.022	0.102	
3.0	0.0	0.0	0.0	0.0	-0.019	-0.019	
4.0	0.0	0.0	0.0	0.0	-0.01	-0.144	
5.0	0.0	0.0	0.0	0.0	0.0	-0.064	
6.0	0.0	0.0	0.0	0.0	0.0	0.048	
7.0	0.0	0.0	0.0	0.0	0.003	-0.045	
8.0	0.0	0.0	0.0	0.0	0.01	-0.057	
9.0	0.0	0.0	0.0	0.0	0.003	0.067	
10.0	0.0	0.0	0.0	0.0	0.01	-0.08	
11.0	0.0	0.0	0.0	0.0	-0.003	-0.128	
12.0	0.0	0.0	0.0	0.0	-0.006	-0.137	
13.0	0.0	0.0	0.0	0.0	-0.01	-0.195	
14.0	0.0	0.0	0.0	0.0	-0.003	-0.153	
15.0	0.0	0.0	0.0	0.0	0.0	-0.118	
0.0	0.0	0.0	0.0	0.0	-0.006	-0.096	
1.0	0.0	0.0	0.0	0.0	-0.013	0.176	
2.0	0.0	0.0	0.0	0.0	-0.019	0.172	
3.0	0.0	0.0	0.0	0.0	-0.022	0.422	
4.0	0.0	0.0	0.0	0.0	-0.01	0.265	
5.0	0.0	0.0	0.0	0.0	-0.01	0.102	
6.0	0.0	0.0	0.0	0.0	-0.003	-0.026	
7.0	0.0	0.0	0.0	0.0	0.003	-0.096	
8.0	0.0	0.0	0.0	0.0	0.0	-0.16	
9.0	0.0	0.0	0.0	0.0	-0.006	-0.345	
10.0	0.0	0.0	0.0	0.0	-0.013	-0.412	
11.0	0.0	0.0	0.0	0.0	-0.01	-0.185	
12.0	0.0	0.0	0.0	0.0	0.019	-0.038	
13.0	0.0	0.0	0.0	0.0	0.035	0.112	
14.0	0.0	0.0	0.0	0.0	0.022	0.109	
15.0	0.0	0.0	0.0	0.0	0.016	0.473	
0.0	0.0	0.0	0.0	0.0	-0.003	0.099	
1.0	0.0	0.0	0.0	0.0	-0.003	-0.131	
2.0	0.0	0.0	0.0	0.0	-0.003	-0.16	
3.0	0.0	0.0	0.0	0.0	-0.003	-0.099	
4.0	0.0	0.0	0.0	0.0	-0.003	-0.163	
5.0	0.0	0.0	0.0	0.0	-0.01	-0.144	
6.0	0.0	0.0	0.0	0.0	-0.019	-0.227	
7.0	0.0	0.0	0.0	0.0	-0.013	-0.099	
8.0	0.0	0.0	0.0	0.0	-0.01	0.176	
9.0	0.0	0.0	0.0	0.0	-0.003	-0.057	
10.0	0.0	0.0	0.0	0.0	-0.003	-0.067	
11.0	0.0	0.0	0.0	0.0	-0.022	0.096	
12.0	0.0	0.0	0.0	0.0	-0.019	-0.105	
13.0	0.0	0.0	0.0	0.0	-0.016	0.192	
14.0	0.0	0.0	0.0	0.0	-0.016	0.08	
15.0	0.0	0.0	0.0	0.0	-0.026	0.035	
0.0	0.0	0.0	0.0	0.0	-0.016	-0.294	
1.0	0.0	0.0	0.0	0.0	0.0	-0.565	
2.0	0.0	0.0	0.0	0.0	0.013	0.556	
3.0	0.0	0.0	0.0	0.0	-0.01	0.581	
4.0	0.0	0.0	0.0	0.0	-0.016	0.054	
5.0	0.0	0.0	0.0	0.0	-0.01	0.524	
6.0	0.0	0.0	0.0	0.0	0.006	0.345	
7.0	0.0	0.0	0.0	0.0	0.038	-0.703	
8.0	0.0	0.0	0.0	0.0	0.057	-0.501	
9.0	0.0	0.0	0.0	0.0	0.048	0.706	
10.0	0.0	0.0	0.0	0.0	0.042	-0.134	
11.0	0.0	0.0	0.0	0.0	0.064	-1.105	
12.0	0.0	0.0	0.0	0.0	0.067	-0.824	
13.0	0.0	0.0	0.0	0.0	0.042	-0.434	
14.0	0.0	0.0	0.0	0.0	0.01	0.374	
15.0	0.0	0.0	0.0	0.0	-0.016	0.211	
0.0	0.0	0.0	0.0	0.0	-0.051	1.415	
1.0	0.0	0.0	0.0	0.0	-0.048	1.626	
2.0	0.0	0.0	0.0	0.0	0.006	-0.278	
3.0	0.0	0.0	0.0	0.0	0.064	-0.546	
4.0	0.0	0.0	0.0	0.0	0.08	-0.406	
5.0	0.0	0.0	0.0	0.0	0.048	-0.271	
6.0	0.0	0.0	0.0	0.0	0.01	-0.201	
7.0	0.0	0.0	0.0	0.0	-0.026	-0.121	
8.0	0.0	0.0	0.0	0.0	-0.042	-0.121	
9.0	0.0	0.0	0.0	0.0	-0.048	-0.128	
10.0	0.0	0.0	0.0	0.0	-0.048	0.01	
11.0	0.0	0.0	0.0	0.0	-0.042	0.042	
12.0	0.0	0.0	0.0	0.0	-0.032	-0.182	
13.0	0.0	0.0	0.0	0.0	-0.026	-0.182	
14.0	0.0	0.0	0.0	0.0	-0.032	-0.112	
15.0	0.0	0.0	0.0	0.0	-0.026	-0.131	
0.0	0.0	0.0	0.0	0.0	-0.022	-0.364	
1.0	0.0	0.0	0.0	0.0	-0.035	-0.422	
2.0	0.0	0.0	0.0	0.0	-0.032	-0.313	
3.0	0.0	0.0	0.0	0.0	-0.051	-0.728	
4.0	0.0	0.0	0.0	0.0	-0.051	-0.712	
5.0	0.0	0.0	0.0	0.0	-0.054	-0.291	
6.0	0.0	0.0	0.0	0.0	-0.064	1.29	
7.0	0.0	0.0	0.0	0.0	-0.073	1.067	
8.0	0.0	0.0	0.0	0.0	-0.032	-0.064	
9.0	0.0	0.0	0.0	0.0	-0.051	1.111	
10.0	0.0	0.0	0.0	0.0	-0.026	1.629	
11.0	0.0	0.0	0.0	0.0	0.121	0.358	
12.0	0.0	0.0	0.0	0.0	0.24	-0.984	
13.0	0.0	0.0	0.0	0.0	0.214	-0.463	
14.0	0.0	0.0	0.0	0.0	0.15	-0.051	
15.0	0.0	0.0	0.0	0.0	0.096	-0.626	
0.0	0.0	0.0	0.0	0.0	0.07	-0.37	
1.0	0.0	0.0	0.0	0.0	0.048	-0.064	
2.0	0.0	0.0	0.0	0.0	0.01	-0.121	
3.0	0.0	0.0	0.0	0.0	-0.029	-0.147	
4.0	0.0	0.0	0.0	0.0	-0.054	-0.137	
5.0	0.0	0.0	0.0	0.0	-0.057	-0.125	
6.0	0.0	0.0	0.0	0.0	-0.061	-0.105	
7.0	0.0	0.0	0.0	0.0	-0.067	-0.096	
8.0	0.0	0.0	0.0	0.0	-0.07	-0.172	
9.0	0.0	0.0	0.0	0.0	-0.067	-0.192	
10.0	0.0	0.0	0.0	0.0	-0.073	-0.131	
11.0	0.0	0.0	0.0	0.0	-0.077	-0.348	
12.0	0.0	0.0	0.0	0.0	-0.067	-0.54	
13.0	0.0	0.0	0.0	0.0	-0.051	-0.569	
14.0	0.0	0.0	0.0	0.0	-0.038	-0.23	
15.0	0.0	0.0	0.0	0.0	-0.048	0.128	
0.0	0.0	0.0	0.0	0.0	-0.051	0.169	
1.0	0.0	0.0	0.0	0.0	-0.035	0.862	
2.0	0.0	0.0	0.0	0.0	0.01	1.629	
3.0	0.0	0.0	0.0	0.0	0.067	1.204	
4.0	0.0	0.0	0.0	0.0	0.112	0.083	
5.0	0.0	0.0	0.0	0.0	0.131	-0.24	
6.0	0.0	0.0	0.0	0.0	0.093	-0.495	
7.0	0.0	0.0	0.0	0.0	0.08	-0.514	
8.0	0.0	0.0	0.0	0.0	0.051	-0.367	
9.0	0.0	0.0	0.0	0.0	0.026	-0.265	
10.0	0.0	0.0	0.0	0.0	0.01	-0.214	
11.0	0.0	0.0	0.0	0.0	0.0	-0.157	
12.0	0.0	0.0	0.0	0.0	-0.006	-0.118	
13.0	0.0	0.0	0.0	0.0	-0.022	-0.096	
14.0	0.0	0.0	0.0	0.0	-0.029	-0.077	
15.0	0.0	0.0	0.0	0.0	-0.038	-0.064	
0.0	0.0	0.0	0.0	0.0	-0.057	-0.08	
1.0	0.0	0.0	0.0	0.0	-0.061	-0.057	
2.0	0.0	0.0	0.0	0.0	-0.08	-0.006	
3.0	0.0	0.0	0.0	0.0	-0.064	-0.217	
4.0	0.0	0.0	0.0	0.0	-0.061	-0.37	
5.0	0.0	0.0	0.0	0.0	-0.042	-0.393	
6.0	0.0	0.0	0.0	0.0	-0.016	-0.271	
7.0	0.0	0.0	0.0	0.0	-0.016	0.048	
8.0	0.0	0.0	0.0	0.0	-0.013	-0.026	
9.0	0.0	0.0	0.0	0.0	-0.016	0.45	
10.0	0.0	0.0	0.0	0.0	-0.029	1.463	
11.0	0.0	0.0	0.0	0.0	0.006	0.693	
12.0	0.0	0.0	0.0	0.0	0.054	0.358	
13.0	0.0	0.0	0.0	0.0	0.077	0.067	
14.0	0.0	0.0	0.0	0.0	0.077	-0.607	
15.0	0.0	0.0	0.0	0.0	0.077	-0.639	
0.0	0.0	0.0	0.0	0.0	0.061	-0.141	
1.0	0.0	0.0	0.0	0.0	0.054	-0.195	
2.0	0.0	0.0	0.0	0.0	0.026	-0.131	
3.0	0.0	0.0	0.0	0.0	0.003	-0.323	
4.0	0.0	0.0	0.0	0.0	-0.032	-0.76	
5.0	0.0	0.0	0.0	0.0	-0.045	-0.661	
6.0	0.0	0.0	0.0	0.0	-0.051	-0.335	
7.0	0.0	0.0	0.0	0.0	-0.057	-0.326	
8.0	0.0	0.0	0.0	0.0	-0.054	-0.358	
9.0	0.0	0.0	0.0	0.0	-0.061	-0.131	
10.0	0.0	0.0	0.0	0.0	-0.083	1.517	
11.0	0.0	0.0	0.0	0.0	-0.089	1.204	
12.0	0.0	0.0	0.0	0.0	-0.045	0.92	
13.0	0.0	0.0	0.0	0.0	0.019	0.393	
14.0	0.0	0.0	0.0	0.0	0.093	0.699	
15.0	0.0	0.0	0.0	0.0	0.115	-0.163	
0.0	0.0	0.0	0.0	0.0	0.112	-0.901	
1.0	0.0	0.0	0.0	0.0	0.121	-0.661	
2.0	0.0	0.0	0.0	0.0	0.099	-0.46	
3.0	0.0	0.0	0.0	0.0	0.067	-0.374	
4.0	0.0	0.0	0.0	0.0	0.016	-0.166	
5.0	0.0	0.0	0.0	0.0	-0.022	-0.013	
6.0	0.0	0.0	0.0	0.0	-0.054	-0.217	
7.0	0.0	0.0	0.0	0.0	-0.073	0.026	
8.0	0.0	0.0	0.0	0.0	-0.073	-0.157	
9.0	0.0	0.0	0.0	0.0	-0.073	-0.361	
10.0	0.0	0.0	0.0	0.0	-0.051	-0.23	
11.0	0.0	0.0	0.0	0.0	-0.048	0.233	
12.0	0.0	0.0	0.0	0.0	-0.038	1.3	
13.0	0.0	0.0	0.0	0.0	-0.029	0.942	
14.0	0.0	0.0	0.0	0.0	0.019	-0.22	
15.0	0.0	0.0	0.0	0.0	0.067	0.316	
0.0	0.0	0.0	0.0	0.0	0.077	0.172	
1.0	0.0	0.0	0.0	0.0	0.061	-0.275	
2.0	0.0	0.0	0.0	0.0	0.038	-0.434	
3.0	0.0	0.0	0.0	0.0	0.016	-0.444	
4.0	0.0	0.0	0.0	0.0	-0.006	-0.294	
5.0	0.0	0.0	0.0	0.0	-0.016	-0.361	
6.0	0.0	0.0	0.0	0.0	-0.032	-0.348	
7.0	0.0	0.0	0.0	0.0	-0.029	-0.013	
8.0	0.0	0.0	0.0	0.0	-0.026	0.275	
9.0	0.0	0.0	0.0	0.0	-0.006	0.089	
10.0	0.0	0.0	0.0	0.0	-0.006	-0.019	
11.0	0.0	0.0	0.0	0.0	-0.016	-0.026	
12.0	0.0	0.0	0.0	0.0	-0.016	0.022	
13.0	0.0	0.0	0.0	0.0	-0.022	-0.01	
14.0	0.0	0.0	0.0	0.0	-0.026	-0.141	
15.0	0.0	0.0	0.0	0.0	-0.026	-0.096	
0.0	0.0	0.0	0.0	0.0	-0.026	0.323	
1.0	0.0	0.0	0.0	0.0	-0.022	0.054	
2.0	0.0	0.0	0.0	0.0	-0.013	-0.192	
3.0	0.0	0.0	0.0	0.0	-0.01	-0.172	
4.0	0.0	0.0	0.0	0.0	-0.003	0.275	
5.0	0.0	0.0	0.0	0.0	-0.01	0.089	
6.0	0.0	0.0	0.0	0.0	-0.013	-0.396	
7.0	0.0	0.0	0.0	0.0	0.0	-0.316	
8.0	0.0	0.0	0.0	0.0	0.01	-0.099	
9.0	0.0	0.0	0.0	0.0	0.022	-0.121	
10.0	0.0	0.0	0.0	0.0	0.022	0.125	
11.0	0.0	0.0	0.0	0.0	0.016	-0.026	
12.0	0.0	0.0	0.0	0.0	0.0	-0.402	
13.0	0.0	0.0	0.0	0.0	-0.022	-0.038	
14.0	0.0	0.0	0.0	0.0	-0.042	0.811	
15.0	0.0	0.0	0.0	0.0	-0.026	0.418	
0.0	0.0	0.0	0.0	0.0	-0.003	-0.22	
1.0	0.0	0.0	0.0	0.0	0.032	-0.102	
2.0	0.0	0.0	0.0	0.0	0.054	0.677	
3.0	0.0	0.0	0.0	0.0	0.077	-0.08	
4.0	0.0	0.0	0.0	0.0	0.086	-0.399	
5.0	0.0	0.0	0.0	0.0	0.077	-0.297	
6.0	0.0	0.0	0.0	0.0	0.048	-0.131	
7.0	0.0	0.0	0.0	0.0	0.016	0.208	
8.0	0.0	0.0	0.0	0.0	-0.006	0.185	
9.0	0.0	0.0	0.0	0.0	-0.016	-0.032	
10.0	0.0	0.0	0.0	0.0	-0.035	-0.265	
11.0	0.0	0.0	0.0	0.0	-0.048	-0.425	
12.0	0.0	0.0	0.0	0.0	-0.057	-0.476	
13.0	0.0	0.0	0.0	0.0	-0.042	-0.348	
14.0	0.0	0.0	0.0	0.0	-0.035	-0.182	
15.0	0.0	0.0	0.0	0.0	-0.038	-0.201	
0.0	0.0	0.0	0.0	0.0	-0.051	0.396	
1.0	0.0	0.0	0.0	0.0	-0.073	1.064	
2.0	0.0	0.0	0.0	0.0	-0.073	1.083	
3.0	0.0	0.0	0.0	0.0	-0.026	0.054	
4.0	0.0	0.0	0.0	0.0	0.016	-1.012	
5.0	0.0	0.0	0.0	0.0	0.022	-0.268	
6.0	0.0	0.0	0.0	0.0	-0.003	0.214	
7.0	0.0	0.0	0.0	0.0	0.029	0.109	
8.0	0.0	0.0	0.0	0.0	0.067	0.003	
9.0	0.0	0.0	0.0	0.0	0.073	-0.377	
10.0	0.0	0.0	0.0	0.0	0.083	0.227	
11.0	0.0	0.0	0.0	0.0	0.064	0.501	
12.0	0.0	0.0	0.0	0.0	0.038	0.061	
13.0	0.0	0.0	0.0	0.0	0.035	-0.179	
14.0	0.0	0.0	0.0	0.0	-0.003	-0.208	
15.0	0.0	0.0	0.0	0.0	-0.01	-0.172	
0.0	0.0	0.0	0.0	0.0	-0.019	-0.15	
1.0	0.0	0.0	0.0	0.0	-0.013	-0.137	
2.0	0.0	0.0	0.0	0.0	-0.029	-0.083	
3.0	0.0	0.0	0.0	0.0	-0.038	0.061	
4.0	0.0	0.0	0.0	0.0	-0.032	0.07	
5.0	0.0	0.0	0.0	0.0	-0.016	-0.016	
6.0	0.0	0.0	0.0	0.0	-0.035	0.01	
7.0	0.0	0.0	0.0	0.0	-0.042	-0.016	
8.0	0.0	0.0	0.0	0.0	-0.048	-0.134	
9.0	0.0	0.0	0.0	0.0	-0.045	-0.3	
10.0	0.0	0.0	0.0	0.0	-0.048	-0.565	
11.0	0.0	0.0	0.0	0.0	-0.051	-0.591	
12.0	0.0	0.0	0.0	0.0	-0.054	-0.319	
13.0	0.0	0.0	0.0	0.0	-0.042	-0.182	
14.0	0.0	0.0	0.0	0.0	-0.022	0.051	
15.0	0.0	0.0	0.0	0.0	0.013	0.402	
0.0	0.0	0.0	0.0	0.0	0.038	1.115	
1.0	0.0	0.0	0.0	0.0	0.035	1.629	
2.0	0.0	0.0	0.0	0.0	0.07	0.888	
3.0	0.0	0.0	0.0	0.0	0.131	-0.843	
4.0	0.0	0.0	0.0	0.0	0.169	-1.076	
5.0	0.0	0.0	0.0	0.0	0.166	-0.754	
6.0	0.0	0.0	0.0	0.0	0.125	-0.377	
7.0	0.0	0.0	0.0	0.0	0.051	-0.176	
8.0	0.0	0.0	0.0	0.0	-0.003	-0.064	
9.0	0.0	0.0	0.0	0.0	-0.029	-0.029	
10.0	0.0	0.0	0.0	0.0	-0.061	-0.019	
11.0	0.0	0.0	0.0	0.0	-0.077	-0.006	
12.0	0.0	0.0	0.0	0.0	-0.096	0.0	
13.0	0.0	0.0	0.0	0.0	-0.086	0.0	
14.0	0.0	0.0	0.0	0.0	-0.067	-0.006	
15.0	0.0	0.0	0.0	0.0	-0.054	0.01	
0.0	0.0	0.0	0.0	0.0	-0.045	0.029	
1.0	0.0	0.0	0.0	0.0	-0.032	0.077	
2.0	0.0	0.0	0.0	0.0	-0.026	-0.093	
3.0	0.0	0.0	0.0	0.0	-0.016	-0.482	
4.0	0.0	0.0	0.0	0.0	-0.026	-0.406	
5.0	0.0	0.0	0.0	0.0	-0.019	-0.3	
6.0	0.0	0.0	0.0	0.0	-0.029	-0.326	
7.0	0.0	0.0	0.0	0.0	-0.038	-0.553	
8.0	0.0	0.0	0.0	0.0	-0.064	-0.262	
9.0	0.0	0.0	0.0	0.0	-0.083	1.629	
10.0	0.0	0.0	0.0	0.0	-0.045	1.629	
11.0	0.0	0.0	0.0	0.0	0.035	-0.038	
12.0	0.0	0.0	0.0	0.0	0.086	-0.358	
13.0	0.0	0.0	0.0	0.0	0.115	-0.281	
14.0	0.0	0.0	0.0	0.0	0.118	-0.227	
15.0	0.0	0.0	0.0	0.0	0.102	-0.22	
0.0	0.0	0.0	0.0	0.0	0.083	-0.201	
1.0	0.0	0.0	0.0	0.0	0.054	-0.16	
2.0	0.0	0.0	0.0	0.0	0.019	-0.121	
3.0	0.0	0.0	0.0	0.0	-0.003	-0.077	
4.0	0.0	0.0	0.0	0.0	-0.029	-0.093	
5.0	0.0	0.0	0.0	0.0	-0.038	-0.073	
6.0	0.0	0.0	0.0	0.0	-0.061	-0.23	
7.0	0.0	0.0	0.0	0.0	-0.064	-0.332	
8.0	0.0	0.0	0.0	0.0	-0.054	-0.307	
9.0	0.0	0.0	0.0	0.0	-0.035	-0.275	
10.0	0.0	0.0	0.0	0.0	-0.035	-0.204	
11.0	0.0	0.0	0.0	0.0	-0.022	-0.093	
12.0	0.0	0.0	0.0	0.0	-0.022	0.418	
13.0	0.0	0.0	0.0	0.0	-0.035	1.22	
14.0	0.0	0.0	0.0	0.0	-0.035	0.652	
15.0	0.0	0.0	0.0	0.0	0.003	0.073	
0.0	0.0	0.0	0.0	0.0	0.042	0.211	
1.0	0.0	0.0	0.0	0.0	0.057	-0.013	
2.0	0.0	0.0	0.0	0.0	0.038	-0.073	
3.0	0.0	0.0	0.0	0.0	0.026	-0.291	
4.0	0.0	0.0	0.0	0.0	0.032	-0.584	
5.0	0.0	0.0	0.0	0.0	0.038	-0.501	
6.0	0.0	0.0	0.0	0.0	0.022	-0.246	
7.0	0.0	0.0	0.0	0.0	0.003	-0.463	
8.0	0.0	0.0	0.0	0.0	-0.01	-0.463	
9.0	0.0	0.0	0.0	0.0	-0.038	-0.15	
10.0	0.0	0.0	0.0	0.0	-0.042	0.147	
11.0	0.0	0.0	0.0	0.0	-0.032	0.275	
12.0	0.0	0.0	0.0	0.0	-0.038	0.019	
13.0	0.0	0.0	0.0	0.0	-0.054	0.629	
14.0	0.0	0.0	0.0	0.0	-0.045	0.715	
15.0	0.0	0.0	0.0	0.0	-0.003	0.115	
0.0	0.0	0.0	0.0	0.0	0.022	-0.361	
1.0	0.0	0.0	0.0	0.0	0.045	-0.268	
2.0	0.0	0.0	0.0	0.0	0.045	-0.466	
3.0	0.0	0.0	0.0	0.0	0.035	0.083	
4.0	0.0	0.0	0.0	0.0	0.016	0.275	
5.0	0.0	0.0	0.0	0.0	0.019	-0.115	
6.0	0.0	0.0	0.0	0.0	0.01	-0.15	
7.0	0.0	0.0	0.0	0.0	-0.003	-0.144	
8.0	0.0	0.0	0.0	0.0	-0.016	0.057	
9.0	0.0	0.0	0.0	0.0	-0.006	-0.112	
10.0	0.0	0.0	0.0	0.0	0.003	-0.249	
11.0	0.0	0.0	0.0	0.0	0.013	-0.201	
12.0	0.0	0.0	0.0	0.0	0.003	0.584	
13.0	0.0	0.0	0.0	0.0	-0.013	0.658	
14.0	0.0	0.0	0.0	0.0	-0.016	0.172	
15.0	0.0	0.0	0.0	0.0	-0.006	-0.188	
0.0	0.0	0.0	0.0	0.0	-0.01	-0.438	
1.0	0.0	0.0	0.0	0.0	-0.029	-0.875	
2.0	0.0	0.0	0.0	0.0	-0.054	-0.661	
3.0	0.0	0.0	0.0	0.0	-0.064	0.332	
4.0	0.0	0.0	0.0	0.0	-0.067	1.0	
5.0	0.0	0.0	0.0	0.0	-0.006	0.489	
6.0	0.0	0.0	0.0	0.0	0.048	-0.281	
7.0	0.0	0.0	0.0	0.0	0.064	-0.051	
8.0	0.0	0.0	0.0	0.0	0.057	0.485	
9.0	0.0	0.0	0.0	0.0	0.054	0.332	
10.0	0.0	0.0	0.0	0.0	0.032	-0.003	
11.0	0.0	0.0	0.0	0.0	0.026	-0.08	
12.0	0.0	0.0	0.0	0.0	0.006	-0.121	
13.0	0.0	0.0	0.0	0.0	-0.006	0.118	
14.0	0.0	0.0	0.0	0.0	0.0	-0.01	
15.0	0.0	0.0	0.0	0.0	0.016	-0.409	
0.0	0.0	0.0	0.0	0.0	0.035	-0.377	
1.0	0.0	0.0	0.0	0.0	0.022	-0.31	
2.0	0.0	0.0	0.0	0.0	-0.006	-0.227	
3.0	0.0	0.0	0.0	0.0	-0.038	-0.089	
4.0	0.0	0.0	0.0	0.0	-0.057	-0.233	
5.0	0.0	0.0	0.0	0.0	-0.035	-0.323	
6.0	0.0	0.0	0.0	0.0	-0.042	0.112	
7.0	0.0	0.0	0.0	0.0	-0.045	0.281	
8.0	0.0	0.0	0.0	0.0	-0.054	0.211	
9.0	0.0	0.0	0.0	0.0	-0.064	0.214	
10.0	0.0	0.0	0.0	0.0	-0.054	0.814	
11.0	0.0	0.0	0.0	0.0	-0.048	0.262	
12.0	0.0	0.0	0.0	0.0	0.0	-0.955	
13.0	0.0	0.0	0.0	0.0	0.054	-0.466	
14.0	0.0	0.0	0.0	0.0	0.08	-0.319	
15.0	0.0	0.0	0.0	0.0	0.086	-0.137	
0.0	0.0	0.0	0.0	0.0	0.064	-0.003	
1.0	0.0	0.0	0.0	0.0	0.045	0.537	
2.0	0.0	0.0	0.0	0.0	0.026	0.597	
3.0	0.0	0.0	0.0	0.0	0.01	0.275	
4.0	0.0	0.0	0.0	0.0	0.013	0.102	
5.0	0.0	0.0	0.0	0.0	0.019	-0.054	
6.0	0.0	0.0	0.0	0.0	0.0	-0.185	
7.0	0.0	0.0	0.0	0.0	-0.013	-0.118	
8.0	0.0	0.0	0.0	0.0	-0.006	-0.141	
9.0	0.0	0.0	0.0	0.0	-0.016	-0.086	
10.0	0.0	0.0	0.0	0.0	-0.032	-0.307	
11.0	0.0	0.0	0.0	0.0	-0.029	-0.546	
12.0	0.0	0.0	0.0	0.0	-0.029	-0.323	
13.0	0.0	0.0	0.0	0.0	-0.038	-0.396	
14.0	0.0	0.0	0.0	0.0	-0.045	-0.562	
15.0	0.0	0.0	0.0	0.0	-0.048	-0.278	
0.0	0.0	0.0	0.0	0.0	-0.057	0.786	
1.0	0.0	0.0	0.0	0.0	-0.061	0.945	
2.0	0.0	0.0	0.0	0.0	-0.029	-0.054	
3.0	0.0	0.0	0.0	0.0	0.0	-0.294	
4.0	0.0	0.0	0.0	0.0	0.003	1.131	
5.0	0.0	0.0	0.0	0.0	0.038	0.495	
6.0	0.0	0.0	0.0	0.0	0.083	-0.102	
7.0	0.0	0.0	0.0	0.0	0.096	0.24	
8.0	0.0	0.0	0.0	0.0	0.086	0.137	
9.0	0.0	0.0	0.0	0.0	0.067	-0.166	
10.0	0.0	0.0	0.0	0.0	0.032	-0.22	
11.0	0.0	0.0	0.0	0.0	0.003	-0.268	
12.0	0.0	0.0	0.0	0.0	-0.038	-0.307	
13.0	0.0	0.0	0.0	0.0	-0.038	-0.198	
14.0	0.0	0.0	0.0	0.0	-0.048	-0.208	
15.0	0.0	0.0	0.0	0.0	-0.045	-0.141	
0.0	0.0	0.0	0.0	0.0	-0.035	-0.141	
1.0	0.0	0.0	0.0	0.0	-0.026	-0.204	
2.0	0.0	0.0	0.0	0.0	-0.035	-0.39	
3.0	0.0	0.0	0.0	0.0	-0.042	-0.511	
4.0	0.0	0.0	0.0	0.0	-0.035	-0.118	
5.0	0.0	0.0	0.0	0.0	-0.032	0.128	
6.0	0.0	0.0	0.0	0.0	-0.01	-0.08	
7.0	0.0	0.0	0.0	0.0	0.006	-0.22	
8.0	0.0	0.0	0.0	0.0	0.01	0.546	
9.0	0.0	0.0	0.0	0.0	-0.006	1.629	
10.0	0.0	0.0	0.0	0.0	-0.035	0.949	
11.0	0.0	0.0	0.0	0.0	0.022	-0.316	
12.0	0.0	0.0	0.0	0.0	0.073	-0.693	
13.0	0.0	0.0	0.0	0.0	0.102	-0.042	
14.0	0.0	0.0	0.0	0.0	0.099	-0.166	
15.0	0.0	0.0	0.0	0.0	0.067	-0.093	
0.0	0.0	0.0	0.0	0.0	0.022	-0.262	
1.0	0.0	0.0	0.0	0.0	0.0	-0.15	
2.0	0.0	0.0	0.0	0.0	-0.022	-0.086	
3.0	0.0	0.0	0.0	0.0	-0.038	-0.045	
4.0	0.0	0.0	0.0	0.0	-0.054	-0.093	
5.0	0.0	0.0	0.0	0.0	-0.054	-0.323	
6.0	0.0	0.0	0.0	0.0	-0.035	-0.339	
7.0	0.0	0.0	0.0	0.0	-0.016	-0.23	
8.0	0.0	0.0	0.0	0.0	-0.01	-0.147	
9.0	0.0	0.0	0.0	0.0	-0.029	-0.029	
10.0	0.0	0.0	0.0	0.0	-0.048	0.061	
11.0	0.0	0.0	0.0	0.0	-0.035	0.236	
12.0	0.0	0.0	0.0	0.0	-0.013	-0.326	
13.0	0.0	0.0	0.0	0.0	0.0	-0.367	
14.0	0.0	0.0	0.0	0.0	0.01	-0.102	
15.0	0.0	0.0	0.0	0.0	0.0	0.431	
0.0	0.0	0.0	0.0	0.0	-0.019	0.939	
1.0	0.0	0.0	0.0	0.0	0.016	0.029	
2.0	0.0	0.0	0.0	0.0	0.067	-0.102	
3.0	0.0	0.0	0.0	0.0	0.064	-0.438	
4.0	0.0	0.0	0.0	0.0	0.054	0.444	
5.0	0.0	0.0	0.0	0.0	0.013	0.878	
6.0	0.0	0.0	0.0	0.0	-0.006	0.543	
7.0	0.0	0.0	0.0	0.0	-0.01	0.441	
8.0	0.0	0.0	0.0	0.0	0.0	-0.061	
9.0	0.0	0.0	0.0	0.0	0.022	-0.441	
10.0	0.0	0.0	0.0	0.0	0.016	-0.157	
11.0	0.0	0.0	0.0	0.0	-0.003	-0.153	
12.0	0.0	0.0	0.0	0.0	0.01	-0.281	
13.0	0.0	0.0	0.0	0.0	0.016	0.246	
14.0	0.0	0.0	0.0	0.0	0.01	-0.166	
15.0	0.0	0.0	0.0	0.0	0.022	-0.521	
0.0	0.0	0.0	0.0	0.0	0.006	-0.636	
1.0	0.0	0.0	0.0	0.0	-0.019	-0.626	
2.0	0.0	0.0	0.0	0.0	-0.035	-0.329	
3.0	0.0	0.0	0.0	0.0	-0.045	0.192	
4.0	0.0	0.0	0.0	0.0	-0.064	0.584	
5.0	0.0	0.0	0.0	0.0	-0.07	0.358	
6.0	0.0	0.0	0.0	0.0	-0.038	-0.026	
7.0	0.0	0.0	0.0	0.0	0.0	-0.409	
8.0	0.0	0.0	0.0	0.0	0.016	-0.546	
9.0	0.0	0.0	0.0	0.0	0.006	-0.754	
10.0	0.0	0.0	0.0	0.0	-0.013	-0.556	
11.0	0.0	0.0	0.0	0.0	-0.022	-0.08	
12.0	0.0	0.0	0.0	0.0	-0.035	0.572	
13.0	0.0	0.0	0.0	0.0	-0.035	0.776	
14.0	0.0	0.0	0.0	0.0	-0.042	0.256	
15.0	0.0	0.0	0.0	0.0	-0.013	-0.048	
0.0	0.0	0.0	0.0	0.0	0.038	0.738	
1.0	0.0	0.0	0.0	0.0	0.07	0.348	
2.0	0.0	0.0	0.0	0.0	0.08	-0.329	
3.0	0.0	0.0	0.0	0.0	0.051	-0.434	
4.0	0.0	0.0	0.0	0.0	0.013	0.029	
5.0	0.0	0.0	0.0	0.0	-0.016	0.904	
6.0	0.0	0.0	0.0	0.0	-0.032	0.383	
7.0	0.0	0.0	0.0	0.0	-0.016	-0.39	
8.0	0.0	0.0	0.0	0.0	0.01	-0.23	
9.0	0.0	0.0	0.0	0.0	0.029	0.291	
10.0	0.0	0.0	0.0	0.0	0.01	-0.051	
11.0	0.0	0.0	0.0	0.0	-0.01	-0.856	
12.0	0.0	0.0	0.0	0.0	-0.016	-0.85	
13.0	0.0	0.0	0.0	0.0	-0.013	-0.537	
14.0	0.0	0.0	0.0	0.0	-0.026	0.128	
15.0	0.0	0.0	0.0	0.0	-0.026	0.549	
0.0	0.0	0.0	0.0	0.0	-0.038	0.862	
1.0	0.0	0.0	0.0	0.0	-0.019	0.642	
2.0	0.0	0.0	0.0	0.0	0.013	-0.319	
3.0	0.0	0.0	0.0	0.0	0.029	-0.61	
4.0	0.0	0.0	0.0	0.0	0.051	-0.396	
5.0	0.0	0.0	0.0	0.0	0.051	-0.019	
6.0	0.0	0.0	0.0	0.0	0.006	0.533	
7.0	0.0	0.0	0.0	0.0	-0.026	0.208	
8.0	0.0	0.0	0.0	0.0	-0.048	-0.287	
9.0	0.0	0.0	0.0	0.0	-0.038	-0.597	
10.0	0.0	0.0	0.0	0.0	-0.029	-0.578	
11.0	0.0	0.0	0.0	0.0	-0.032	-0.751	
12.0	0.0	0.0	0.0	0.0	-0.032	-0.562	
13.0	0.0	0.0	0.0	0.0	-0.038	1.306	
14.0	0.0	0.0	0.0	0.0	-0.026	1.629	
15.0	0.0	0.0	0.0	0.0	0.042	0.524	
0.0	0.0	0.0	0.0	0.0	0.105	0.262	
1.0	0.0	0.0	0.0	0.0	0.128	-0.562	
2.0	0.0	0.0	0.0	0.0	0.105	-0.227	
3.0	0.0	0.0	0.0	0.0	0.061	0.345	
4.0	0.0	0.0	0.0	0.0	0.035	0.0	
5.0	0.0	0.0	0.0	0.0	0.003	-0.578	
6.0	0.0	0.0	0.0	0.0	-0.048	-0.99	
7.0	0.0	0.0	0.0	0.0	-0.057	-0.811	
8.0	0.0	0.0	0.0	0.0	-0.048	-0.37	
9.0	0.0	0.0	0.0	0.0	-0.029	0.144	
10.0	0.0	0.0	0.0	0.0	-0.026	0.013	
11.0	0.0	0.0	0.0	0.0	-0.026	0.511	
12.0	0.0	0.0	0.0	0.0	-0.042	0.69	
13.0	0.0	0.0	0.0	0.0	-0.016	0.377	
14.0	0.0	0.0	0.0	0.0	-0.019	0.39	
15.0	0.0	0.0	0.0	0.0	-0.022	0.137	
0.0	0.0	0.0	0.0	0.0	-0.016	-0.141	
1.0	0.0	0.0	0.0	0.0	-0.013	-0.278	
2.0	0.0	0.0	0.0	0.0	-0.016	-0.128	
3.0	0.0	0.0	0.0	0.0	-0.013	-0.169	
4.0	0.0	0.0	0.0	0.0	0.0	-0.077	
5.0	0.0	0.0	0.0	0.0	0.016	-0.291	
6.0	0.0	0.0	0.0	0.0	0.029	-0.655	
7.0	0.0	0.0	0.0	0.0	0.057	-0.706	
8.0	0.0	0.0	0.0	0.0	0.048	-0.102	
9.0	0.0	0.0	0.0	0.0	0.0	0.706	
10.0	0.0	0.0	0.0	0.0	-0.022	1.236	
11.0	0.0	0.0	0.0	0.0	-0.003	0.07	
12.0	0.0	0.0	0.0	0.0	0.0	0.032	
13.0	0.0	0.0	0.0	0.0	0.013	-0.125	
14.0	0.0	0.0	0.0	0.0	0.006	-0.447	
15.0	0.0	0.0	0.0	0.0	-0.022	-0.645	
0.0	0.0	0.0	0.0	0.0	-0.029	-0.636	
1.0	0.0	0.0	0.0	0.0	-0.029	-0.224	
2.0	0.0	0.0	0.0	0.0	-0.042	0.348	
3.0	0.0	0.0	0.0	0.0	-0.051	0.038	
4.0	0.0	0.0	0.0	0.0	-0.048	0.923	
5.0	0.0	0.0	0.0	0.0	-0.016	0.533	
6.0	0.0	0.0	0.0	0.0	0.013	-0.252	
7.0	0.0	0.0	0.0	0.0	0.042	-0.035	
8.0	0.0	0.0	0.0	0.0	0.042	-0.01	
9.0	0.0	0.0	0.0	0.0	0.022	0.045	
10.0	0.0	0.0	0.0	0.0	0.026	-0.141	
11.0	0.0	0.0	0.0	0.0	0.038	0.073	
12.0	0.0	0.0	0.0	0.0	0.054	-0.195	
13.0	0.0	0.0	0.0	0.0	0.048	-0.533	
14.0	0.0	0.0	0.0	0.0	0.026	0.176	
15.0	0.0	0.0	0.0	0.0	-0.006	0.109	
0.0	0.0	0.0	0.0	0.0	-0.026	-0.355	
1.0	0.0	0.0	0.0	0.0	-0.032	-0.348	
2.0	0.0	0.0	0.0	0.0	-0.035	0.019	
3.0	0.0	0.0	0.0	0.0	-0.048	0.201	
4.0	0.0	0.0	0.0	0.0	-0.042	-0.182	
5.0	0.0	0.0	0.0	0.0	-0.022	-0.006	
6.0	0.0	0.0	0.0	0.0	0.022	0.393	
7.0	0.0	0.0	0.0	0.0	0.029	0.22	
8.0	0.0	0.0	0.0	0.0	0.013	-0.188	
9.0	0.0	0.0	0.0	0.0	-0.016	0.019	
10.0	0.0	0.0	0.0	0.0	-0.038	1.182	
11.0	0.0	0.0	0.0	0.0	-0.013	0.527	
12.0	0.0	0.0	0.0	0.0	0.035	-0.195	
13.0	0.0	0.0	0.0	0.0	0.051	-0.533	
14.0	0.0	0.0	0.0	0.0	0.029	-0.709	
15.0	0.0	0.0	0.0	0.0	0.019	-0.511	
0.0	0.0	0.0	0.0	0.0	0.0	-0.31	
1.0	0.0	0.0	0.0	0.0	-0.022	-0.256	
2.0	0.0	0.0	0.0	0.0	-0.045	-0.38	
3.0	0.0	0.0	0.0	0.0	-0.067	0.367	
4.0	0.0	0.0	0.0	0.0	-0.07	0.291	
5.0	0.0	0.0	0.0	0.0	-0.048	-0.284	
6.0	0.0	0.0	0.0	0.0	-0.032	-0.24	
7.0	0.0	0.0	0.0	0.0	0.0	0.15	
8.0	0.0	0.0	0.0	0.0	0.019	1.057	
9.0	0.0	0.0	0.0	0.0	0.042	0.645	
10.0	0.0	0.0	0.0	0.0	0.029	-0.105	
11.0	0.0	0.0	0.0	0.0	0.042	-0.629	
12.0	0.0	0.0	0.0	0.0	0.048	-0.92	
13.0	0.0	0.0	0.0	0.0	0.038	-0.747	
14.0	0.0	0.0	0.0	0.0	0.013	-0.814	
15.0	0.0	0.0	0.0	0.0	-0.013	-0.303	
0.0	0.0	0.0	0.0	0.0	-0.035	0.578	
1.0	0.0	0.0	0.0	0.0	-0.064	1.629	
2.0	0.0	0.0	0.0	0.0	-0.019	1.629	
3.0	0.0	0.0	0.0	0.0	0.042	0.575	
4.0	0.0	0.0	0.0	0.0	0.089	-0.102	
5.0	0.0	0.0	0.0	0.0	0.109	-0.91	
6.0	0.0	0.0	0.0	0.0	0.089	-0.821	
7.0	0.0	0.0	0.0	0.0	0.029	-0.696	
8.0	0.0	0.0	0.0	0.0	-0.035	-0.553	
9.0	0.0	0.0	0.0	0.0	-0.061	-0.38	
10.0	0.0	0.0	0.0	0.0	-0.061	-0.259	
11.0	0.0	0.0	0.0	0.0	-0.064	0.048	
12.0	0.0	0.0	0.0	0.0	-0.067	-0.141	
13.0	0.0	0.0	0.0	0.0	-0.042	0.236	
14.0	0.0	0.0	0.0	0.0	0.006	0.281	
15.0	0.0	0.0	0.0	0.0	0.022	-0.227	
0.0	0.0	0.0	0.0	0.0	0.016	-0.492	
1.0	0.0	0.0	0.0	0.0	0.029	-0.434	
2.0	0.0	0.0	0.0	0.0	0.019	-0.313	
3.0	0.0	0.0	0.0	0.0	-0.01	-0.402	
4.0	0.0	0.0	0.0	0.0	-0.026	-0.204	
5.0	0.0	0.0	0.0	0.0	-0.061	-0.118	
6.0	0.0	0.0	0.0	0.0	-0.08	-0.744	
7.0	0.0	0.0	0.0	0.0	-0.067	-1.016	
8.0	0.0	0.0	0.0	0.0	-0.08	0.153	
9.0	0.0	0.0	0.0	0.0	-0.102	1.453	
10.0	0.0	0.0	0.0	0.0	-0.099	1.629	
11.0	0.0	0.0	0.0	0.0	-0.029	1.629	
12.0	0.0	0.0	0.0	0.0	0.061	1.629	
13.0	0.0	0.0	0.0	0.0	0.157	-0.105	
14.0	0.0	0.0	0.0	0.0	0.185	-0.83	
15.0	0.0	0.0	0.0	0.0	0.198	-0.945	
0.0	0.0	0.0	0.0	0.0	0.179	-0.751	
1.0	0.0	0.0	0.0	0.0	0.147	-1.006	
2.0	0.0	0.0	0.0	0.0	0.054	-0.779	
3.0	0.0	0.0	0.0	0.0	-0.022	-0.505	
4.0	0.0	0.0	0.0	0.0	-0.08	-0.284	
5.0	0.0	0.0	0.0	0.0	-0.118	-0.083	
6.0	0.0	0.0	0.0	0.0	-0.125	-0.057	
7.0	0.0	0.0	0.0	0.0	-0.102	-0.179	
8.0	0.0	0.0	0.0	0.0	-0.089	-0.233	
9.0	0.0	0.0	0.0	0.0	-0.077	0.176	
10.0	0.0	0.0	0.0	0.0	-0.057	0.508	
11.0	0.0	0.0	0.0	0.0	-0.026	0.415	
12.0	0.0	0.0	0.0	0.0	-0.019	0.029	
13.0	0.0	0.0	0.0	0.0	-0.048	-0.182	
14.0	0.0	0.0	0.0	0.0	-0.045	-0.524	
15.0	0.0	0.0	0.0	0.0	-0.035	-0.067	
0.0	0.0	0.0	0.0	0.0	0.01	-0.559	
1.0	0.0	0.0	0.0	0.0	0.048	0.006	
2.0	0.0	0.0	0.0	0.0	0.067	1.623	
3.0	0.0	0.0	0.0	0.0	0.086	1.626	
4.0	0.0	0.0	0.0	0.0	0.096	0.39	
5.0	0.0	0.0	0.0	0.0	0.093	-0.128	
6.0	0.0	0.0	0.0	0.0	0.048	-0.712	
7.0	0.0	0.0	0.0	0.0	0.048	-1.048	
8.0	0.0	0.0	0.0	0.0	0.054	-0.642	
9.0	0.0	0.0	0.0	0.0	0.038	-0.185	
10.0	0.0	0.0	0.0	0.0	-0.006	0.045	
11.0	0.0	0.0	0.0	0.0	-0.051	-0.15	
12.0	0.0	0.0	0.0	0.0	-0.07	-0.495	
13.0	0.0	0.0	0.0	0.0	-0.067	-0.674	
14.0	0.0	0.0	0.0	0.0	-0.061	-0.664	
15.0	0.0	0.0	0.0	0.0	-0.067	-0.425	
0.0	0.0	0.0	0.0	0.0	-0.07	-0.016	
1.0	0.0	0.0	0.0	0.0	-0.061	0.805	
2.0	0.0	0.0	0.0	0.0	-0.038	1.012	
3.0	0.0	0.0	0.0	0.0	-0.016	0.597	
4.0	0.0	0.0	0.0	0.0	-0.006	1.338	
5.0	0.0	0.0	0.0	0.0	0.006	0.715	
6.0	0.0	0.0	0.0	0.0	0.048	-0.208	
7.0	0.0	0.0	0.0	0.0	0.099	-0.425	
8.0	0.0	0.0	0.0	0.0	0.121	-0.166	
9.0	0.0	0.0	0.0	0.0	0.083	-0.134	
10.0	0.0	0.0	0.0	0.0	0.022	-0.696	
11.0	0.0	0.0	0.0	0.0	0.003	-0.875	
12.0	0.0	0.0	0.0	0.0	0.006	-0.738	
13.0	0.0	0.0	0.0	0.0	-0.029	-0.607	
14.0	0.0	0.0	0.0	0.0	-0.061	-0.454	
15.0	0.0	0.0	0.0	0.0	-0.08	0.227	
0.0	0.0	0.0	0.0	0.0	-0.102	1.626	
1.0	0.0	0.0	0.0	0.0	-0.093	0.77	
2.0	0.0	0.0	0.0	0.0	-0.061	-0.719	
3.0	0.0	0.0	0.0	0.0	-0.01	-0.246	
4.0	0.0	0.0	0.0	0.0	0.048	-0.089	
5.0	0.0	0.0	0.0	0.0	0.077	-0.15	
6.0	0.0	0.0	0.0	0.0	0.067	0.211	
7.0	0.0	0.0	0.0	0.0	0.061	0.607	
8.0	0.0	0.0	0.0	0.0	0.038	0.517	
9.0	0.0	0.0	0.0	0.0	0.032	-0.019	
10.0	0.0	0.0	0.0	0.0	0.029	-0.294	
11.0	0.0	0.0	0.0	0.0	0.003	-0.348	
12.0	0.0	0.0	0.0	0.0	-0.026	-0.303	
13.0	0.0	0.0	0.0	0.0	-0.026	0.054	
14.0	0.0	0.0	0.0	0.0	-0.048	-0.271	
15.0	0.0	0.0	0.0	0.0	-0.057	-0.549	
0.0	0.0	0.0	0.0	0.0	-0.083	-0.339	
1.0	0.0	0.0	0.0	0.0	-0.115	0.323	
2.0	0.0	0.0	0.0	0.0	-0.077	-0.022	
3.0	0.0	0.0	0.0	0.0	-0.01	-0.185	
4.0	0.0	0.0	0.0	0.0	0.051	0.588	
5.0	0.0	0.0	0.0	0.0	0.077	0.645	
6.0	0.0	0.0	0.0	0.0	0.07	1.424	
7.0	0.0	0.0	0.0	0.0	0.048	0.904	
8.0	0.0	0.0	0.0	0.0	0.048	-0.179	
9.0	0.0	0.0	0.0	0.0	0.042	-0.958	
10.0	0.0	0.0	0.0	0.0	0.042	-1.044	
11.0	0.0	0.0	0.0	0.0	0.038	-0.696	
12.0	0.0	0.0	0.0	0.0	0.022	-0.533	
13.0	0.0	0.0	0.0	0.0	-0.003	0.319	
14.0	0.0	0.0	0.0	0.0	-0.048	0.137	
15.0	0.0	0.0	0.0	0.0	-0.077	-0.003	
0.0	0.0	0.0	0.0	0.0	-0.061	0.134	
1.0	0.0	0.0	0.0	0.0	-0.051	0.329	
2.0	0.0	0.0	0.0	0.0	-0.042	-0.335	
3.0	0.0	0.0	0.0	0.0	-0.003	-0.501	
4.0	0.0	0.0	0.0	0.0	0.029	-0.201	
5.0	0.0	0.0	0.0	0.0	0.045	-0.054	
6.0	0.0	0.0	0.0	0.0	0.048	-0.064	
7.0	0.0	0.0	0.0	0.0	0.022	0.185	
8.0	0.0	0.0	0.0	0.0	0.006	0.521	
9.0	0.0	0.0	0.0	0.0	0.003	-0.013	
10.0	0.0	0.0	0.0	0.0	0.006	-0.441	
11.0	0.0	0.0	0.0	0.0	0.0	-0.591	
12.0	0.0	0.0	0.0	0.0	0.0	-0.351	
13.0	0.0	0.0	0.0	0.0	-0.026	0.776	
14.0	0.0	0.0	0.0	0.0	-0.042	0.581	
15.0	0.0	0.0	0.0	0.0	-0.057	0.291	
0.0	0.0	0.0	0.0	0.0	-0.045	0.275	
1.0	0.0	0.0	0.0	0.0	-0.01	0.125	
2.0	0.0	0.0	0.0	0.0	0.01	-0.323	
3.0	0.0	0.0	0.0	0.0	0.0	-0.144	
4.0	0.0	0.0	0.0	0.0	-0.013	0.013	
5.0	0.0	0.0	0.0	0.0	-0.042	-0.246	
6.0	0.0	0.0	0.0	0.0	-0.067	-0.511	
7.0	0.0	0.0	0.0	0.0	-0.064	0.447	
8.0	0.0	0.0	0.0	0.0	-0.01	-0.578	
9.0	0.0	0.0	0.0	0.0	0.083	-0.917	
10.0	0.0	0.0	0.0	0.0	0.137	-0.428	
11.0	0.0	0.0	0.0	0.0	0.105	-0.626	
12.0	0.0	0.0	0.0	0.0	0.077	-0.003	
13.0	0.0	0.0	0.0	0.0	0.077	0.553	
14.0	0.0	0.0	0.0	0.0	0.045	1.629	
15.0	0.0	0.0	0.0	0.0	-0.003	1.629	
0.0	0.0	0.0	0.0	0.0	0.0	0.214	
1.0	0.0	0.0	0.0	0.0	-0.003	-0.524	
2.0	0.0	0.0	0.0	0.0	-0.013	-0.527	
3.0	0.0	0.0	0.0	0.0	-0.026	-0.348	
4.0	0.0	0.0	0.0	0.0	-0.042	-0.185	
5.0	0.0	0.0	0.0	0.0	-0.048	0.01	
6.0	0.0	0.0	0.0	0.0	-0.042	0.217	
7.0	0.0	0.0	0.0	0.0	-0.057	0.064	
8.0	0.0	0.0	0.0	0.0	-0.096	-0.089	
9.0	0.0	0.0	0.0	0.0	-0.067	-0.725	
10.0	0.0	0.0	0.0	0.0	0.016	-0.584	
11.0	0.0	0.0	0.0	0.0	0.029	-0.316	
12.0	0.0	0.0	0.0	0.0	-0.003	-0.422	
13.0	0.0	0.0	0.0	0.0	-0.051	0.249	
14.0	0.0	0.0	0.0	0.0	-0.093	1.629	
15.0	0.0	0.0	0.0	0.0	-0.048	0.457	
0.0	0.0	0.0	0.0	0.0	0.038	-0.032	
1.0	0.0	0.0	0.0	0.0	0.109	-0.479	
2.0	0.0	0.0	0.0	0.0	0.131	-0.418	
3.0	0.0	0.0	0.0	0.0	0.096	-0.511	
4.0	0.0	0.0	0.0	0.0	0.048	-0.396	
5.0	0.0	0.0	0.0	0.0	-0.026	-0.47	
6.0	0.0	0.0	0.0	0.0	-0.048	0.134	
7.0	0.0	0.0	0.0	0.0	-0.032	-0.313	
8.0	0.0	0.0	0.0	0.0	0.01	-0.763	
9.0	0.0	0.0	0.0	0.0	0.01	-0.795	
10.0	0.0	0.0	0.0	0.0	0.026	0.15	
11.0	0.0	0.0	0.0	0.0	0.01	0.479	
12.0	0.0	0.0	0.0	0.0	-0.006	0.907	
13.0	0.0	0.0	0.0	0.0	-0.045	1.597	
14.0	0.0	0.0	0.0	0.0	-0.054	0.099	
15.0	0.0	0.0	0.0	0.0	-0.045	-0.604	
0.0	0.0	0.0	0.0	0.0	-0.029	-0.751	
1.0	0.0	0.0	0.0	0.0	-0.064	-0.629	
2.0	0.0	0.0	0.0	0.0	-0.077	-0.655	
3.0	0.0	0.0	0.0	0.0	-0.057	-0.875	
4.0	0.0	0.0	0.0	0.0	-0.051	0.176	
5.0	0.0	0.0	0.0	0.0	-0.061	1.629	
6.0	0.0	0.0	0.0	0.0	0.003	1.607	
7.0	0.0	0.0	0.0	0.0	0.077	0.476	
8.0	0.0	0.0	0.0	0.0	0.112	-0.415	
9.0	0.0	0.0	0.0	0.0	0.128	-0.057	
10.0	0.0	0.0	0.0	0.0	0.089	-0.042	
11.0	0.0	0.0	0.0	0.0	0.07	-0.795	
12.0	0.0	0.0	0.0	0.0	0.054	-1.048	
13.0	0.0	0.0	0.0	0.0	0.016	-0.904	
14.0	0.0	0.0	0.0	0.0	-0.006	-0.339	
15.0	0.0	0.0	0.0	0.0	-0.029	0.735	
0.0	0.0	0.0	0.0	0.0	-0.035	0.85	
1.0	0.0	0.0	0.0	0.0	0.0	0.054	
2.0	0.0	0.0	0.0	0.0	0.01	0.054	
3.0	0.0	0.0	0.0	0.0	0.019	0.195	
4.0	0.0	0.0	0.0	0.0	0.006	-0.166	
5.0	0.0	0.0	0.0	0.0	-0.013	-0.364	
6.0	0.0	0.0	0.0	0.0	-0.042	-0.227	
7.0	0.0	0.0	0.0	0.0	-0.064	-0.284	
8.0	0.0	0.0	0.0	0.0	-0.073	-0.53	
9.0	0.0	0.0	0.0	0.0	-0.08	-0.473	
10.0	0.0	0.0	0.0	0.0	-0.105	-0.508	
11.0	0.0	0.0	0.0	0.0	-0.115	-0.134	
12.0	0.0	0.0	0.0	0.0	-0.105	0.642	
13.0	0.0	0.0	0.0	0.0	-0.051	0.929	
14.0	0.0	0.0	0.0	0.0	0.022	1.092	
15.0	0.0	0.0	0.0	0.0	0.118	0.913	
0.0	0.0	0.0	0.0	0.0	0.137	1.006	
1.0	0.0	0.0	0.0	0.0	0.121	-0.179	
2.0	0.0	0.0	0.0	0.0	0.125	-0.514	
3.0	0.0	0.0	0.0	0.0	0.099	-0.45	
4.0	0.0	0.0	0.0	0.0	0.038	-0.45	
5.0	0.0	0.0	0.0	0.0	0.01	-0.767	
6.0	0.0	0.0	0.0	0.0	-0.026	-0.795	
7.0	0.0	0.0	0.0	0.0	-0.054	-0.668	
8.0	0.0	0.0	0.0	0.0	-0.064	-0.412	
9.0	0.0	0.0	0.0	0.0	-0.057	0.776	
10.0	0.0	0.0	0.0	0.0	-0.032	0.489	
11.0	0.0	0.0	0.0	0.0	-0.013	0.533	
12.0	0.0	0.0	0.0	0.0	0.006	-0.102	
13.0	0.0	0.0	0.0	0.0	0.029	-0.31	
14.0	0.0	0.0	0.0	0.0	0.048	0.307	
15.0	0.0	0.0	0.0	0.0	0.026	0.287	
0.0	0.0	0.0	0.0	0.0	-0.013	0.102	
1.0	0.0	0.0	0.0	0.0	-0.026	0.057	
2.0	0.0	0.0	0.0	0.0	-0.051	-0.396	
3.0	0.0	0.0	0.0	0.0	-0.086	-0.805	
4.0	0.0	0.0	0.0	0.0	-0.086	-1.032	
5.0	0.0	0.0	0.0	0.0	-0.064	-0.559	
6.0	0.0	0.0	0.0	0.0	-0.032	-0.412	
7.0	0.0	0.0	0.0	0.0	0.022	-0.339	
8.0	0.0	0.0	0.0	0.0	0.042	-0.035	
9.0	0.0	0.0	0.0	0.0	0.006	1.629	
10.0	0.0	0.0	0.0	0.0	0.003	1.629	
11.0	0.0	0.0	0.0	0.0	0.038	-0.006	
12.0	0.0	0.0	0.0	0.0	0.032	-0.45	
13.0	0.0	0.0	0.0	0.0	0.01	0.517	
14.0	0.0	0.0	0.0	0.0	0.022	0.064	
15.0	0.0	0.0	0.0	0.0	0.029	-0.62	
0.0	0.0	0.0	0.0	0.0	0.003	-0.565	
1.0	0.0	0.0	0.0	0.0	-0.022	-0.367	
2.0	0.0	0.0	0.0	0.0	-0.006	-0.444	
3.0	0.0	0.0	0.0	0.0	-0.003	0.083	
4.0	0.0	0.0	0.0	0.0	0.061	-0.217	
5.0	0.0	0.0	0.0	0.0	0.083	-0.351	
6.0	0.0	0.0	0.0	0.0	0.064	-0.137	
7.0	0.0	0.0	0.0	0.0	0.038	0.319	
8.0	0.0	0.0	0.0	0.0	0.019	0.252	
9.0	0.0	0.0	0.0	0.0	-0.003	0.607	
10.0	0.0	0.0	0.0	0.0	-0.022	0.08	
11.0	0.0	0.0	0.0	0.0	-0.042	-0.632	
12.0	0.0	0.0	0.0	0.0	-0.038	-0.731	
13.0	0.0	0.0	0.0	0.0	-0.032	-0.428	
14.0	0.0	0.0	0.0	0.0	-0.064	0.105	
15.0	0.0	0.0	0.0	0.0	-0.064	0.284	
0.0	0.0	0.0	0.0	0.0	-0.054	0.406	
1.0	0.0	0.0	0.0	0.0	-0.057	0.658	
2.0	0.0	0.0	0.0	0.0	-0.064	0.524	
3.0	0.0	0.0	0.0	0.0	-0.038	0.125	
4.0	0.0	0.0	0.0	0.0	-0.003	-0.719	
5.0	0.0	0.0	0.0	0.0	0.067	-1.044	
6.0	0.0	0.0	0.0	0.0	0.093	-0.399	
7.0	0.0	0.0	0.0	0.0	0.07	-0.364	
8.0	0.0	0.0	0.0	0.0	0.051	-0.271	
9.0	0.0	0.0	0.0	0.0	0.022	0.639	
10.0	0.0	0.0	0.0	0.0	0.006	1.594	
11.0	0.0	0.0	0.0	0.0	-0.006	0.62	
12.0	0.0	0.0	0.0	0.0	0.019	0.08	
13.0	0.0	0.0	0.0	0.0	0.029	-0.396	
14.0	0.0	0.0	0.0	0.0	0.019	-0.243	
15.0	0.0	0.0	0.0	0.0	-0.003	-0.268	
0.0	0.0	0.0	0.0	0.0	-0.051	-0.294	
1.0	0.0	0.0	0.0	0.0	-0.064	-0.204	
2.0	0.0	0.0	0.0	0.0	-0.045	-0.198	
3.0	0.0	0.0	0.0	0.0	-0.019	-0.188	
4.0	0.0	0.0	0.0	0.0	-0.01	-0.16	
5.0	0.0	0.0	0.0	0.0	-0.003	-0.064	
6.0	0.0	0.0	0.0	0.0	0.003	0.329	
7.0	0.0	0.0	0.0	0.0	0.006	0.169	
8.0	0.0	0.0	0.0	0.0	0.01	-0.15	
9.0	0.0	0.0	0.0	0.0	0.038	-0.077	
10.0	0.0	0.0	0.0	0.0	0.026	0.128	
11.0	0.0	0.0	0.0	0.0	-0.006	0.217	
12.0	0.0	0.0	0.0	0.0	-0.026	0.035	
13.0	0.0	0.0	0.0	0.0	-0.048	-0.607	
14.0	0.0	0.0	0.0	0.0	-0.042	-0.955	
15.0	0.0	0.0	0.0	0.0	-0.026	-0.703	
0.0	0.0	0.0	0.0	0.0	-0.035	-0.767	
1.0	0.0	0.0	0.0	0.0	-0.032	-0.607	
2.0	0.0	0.0	0.0	0.0	-0.029	0.332	
3.0	0.0	0.0	0.0	0.0	-0.016	1.003	
4.0	0.0	0.0	0.0	0.0	-0.003	1.629	
5.0	0.0	0.0	0.0	0.0	0.013	1.629	
6.0	0.0	0.0	0.0	0.0	0.057	0.591	
7.0	0.0	0.0	0.0	0.0	0.115	-0.105	
8.0	0.0	0.0	0.0	0.0	0.099	0.013	
9.0	0.0	0.0	0.0	0.0	0.061	0.102	
10.0	0.0	0.0	0.0	0.0	0.029	-0.211	
11.0	0.0	0.0	0.0	0.0	0.006	-0.511	
12.0	0.0	0.0	0.0	0.0	-0.019	-0.626	
13.0	0.0	0.0	0.0	0.0	-0.038	-0.821	
14.0	0.0	0.0	0.0	0.0	-0.057	-0.396	
15.0	0.0	0.0	0.0	0.0	-0.061	-0.006	
0.0	0.0	0.0	0.0	0.0	-0.089	-0.022	
1.0	0.0	0.0	0.0	0.0	-0.054	-0.249	
2.0	0.0	0.0	0.0	0.0	-0.003	0.121	
3.0	0.0	0.0	0.0	0.0	0.029	0.057	
4.0	0.0	0.0	0.0	0.0	0.067	-0.07	
5.0	0.0	0.0	0.0	0.0	0.029	-0.271	
6.0	0.0	0.0	0.0	0.0	0.003	-0.45	
7.0	0.0	0.0	0.0	0.0	-0.013	-0.073	
8.0	0.0	0.0	0.0	0.0	-0.01	-0.204	
9.0	0.0	0.0	0.0	0.0	0.029	-0.019	
10.0	0.0	0.0	0.0	0.0	0.006	0.342	
11.0	0.0	0.0	0.0	0.0	-0.01	0.23	
12.0	0.0	0.0	0.0	0.0	-0.006	0.811	
13.0	0.0	0.0	0.0	0.0	0.01	0.808	
14.0	0.0	0.0	0.0	0.0	0.064	0.68	
15.0	0.0	0.0	0.0	0.0	0.089	0.249	
0.0	0.0	0.0	0.0	0.0	0.051	-0.508	
1.0	0.0	0.0	0.0	0.0	0.006	-0.802	
2.0	0.0	0.0	0.0	0.0	-0.038	-0.738	
3.0	0.0	0.0	0.0	0.0	-0.064	-0.457	
4.0	0.0	0.0	0.0	0.0	-0.064	-0.422	
5.0	0.0	0.0	0.0	0.0	-0.057	-0.61	
6.0	0.0	0.0	0.0	0.0	-0.051	0.195	
7.0	0.0	0.0	0.0	0.0	-0.035	0.83	
8.0	0.0	0.0	0.0	0.0	-0.006	0.428	
9.0	0.0	0.0	0.0	0.0	0.019	-0.093	
10.0	0.0	0.0	0.0	0.0	0.013	0.099	
11.0	0.0	0.0	0.0	0.0	0.019	-0.096	
12.0	0.0	0.0	0.0	0.0	0.0	0.316	
13.0	0.0	0.0	0.0	0.0	-0.013	0.693	
14.0	0.0	0.0	0.0	0.0	-0.013	0.604	
15.0	0.0	0.0	0.0	0.0	0.013	-0.163	
0.0	0.0	0.0	0.0	0.0	0.022	-0.335	
1.0	0.0	0.0	0.0	0.0	0.022	-0.386	
2.0	0.0	0.0	0.0	0.0	0.006	-0.348	
3.0	0.0	0.0	0.0	0.0	-0.013	-0.693	
4.0	0.0	0.0	0.0	0.0	-0.038	-0.993	
5.0	0.0	0.0	0.0	0.0	-0.026	-0.83	
6.0	0.0	0.0	0.0	0.0	-0.022	-0.741	
7.0	0.0	0.0	0.0	0.0	-0.013	-0.265	
8.0	0.0	0.0	0.0	0.0	-0.032	1.629	
9.0	0.0	0.0	0.0	0.0	-0.038	1.629	
10.0	0.0	0.0	0.0	0.0	0.003	1.147	
11.0	0.0	0.0	0.0	0.0	0.061	-0.313	
12.0	0.0	0.0	0.0	0.0	0.08	-0.722	
13.0	0.0	0.0	0.0	0.0	0.061	-0.853	
14.0	0.0	0.0	0.0	0.0	0.013	-0.859	
15.0	0.0	0.0	0.0	0.0	0.0	-0.588	
0.0	0.0	0.0	0.0	0.0	0.019	0.061	
1.0	0.0	0.0	0.0	0.0	-0.003	0.089	
2.0	0.0	0.0	0.0	0.0	-0.035	0.271	
3.0	0.0	0.0	0.0	0.0	-0.026	1.019	
4.0	0.0	0.0	0.0	0.0	0.0	0.725	
5.0	0.0	0.0	0.0	0.0	0.0	0.099	
6.0	0.0	0.0	0.0	0.0	0.01	0.169	
7.0	0.0	0.0	0.0	0.0	-0.006	0.521	
8.0	0.0	0.0	0.0	0.0	0.0	0.112	
9.0	0.0	0.0	0.0	0.0	0.016	-0.489	
10.0	0.0	0.0	0.0	0.0	0.016	-0.699	
11.0	0.0	0.0	0.0	0.0	0.01	-0.578	
12.0	0.0	0.0	0.0	0.0	0.003	-0.39	
13.0	0.0	0.0	0.0	0.0	-0.016	0.297	
14.0	0.0	0.0	0.0	0.0	-0.026	0.271	
15.0	0.0	0.0	0.0	0.0	-0.035	-0.38	
0.0	0.0	0.0	0.0	0.0	-0.042	-0.447	
1.0	0.0	0.0	0.0	0.0	-0.032	-0.256	
2.0	0.0	0.0	0.0	0.0	-0.029	-0.233	
3.0	0.0	0.0	0.0	0.0	-0.01	-0.616	
4.0	0.0	0.0	0.0	0.0	0.003	0.077	
5.0	0.0	0.0	0.0	0.0	0.0	1.297	
6.0	0.0	0.0	0.0	0.0	0.022	0.741	
7.0	0.0	0.0	0.0	0.0	0.029	-0.294	
8.0	0.0	0.0	0.0	0.0	-0.003	-0.473	
9.0	0.0	0.0	0.0	0.0	-0.006	-0.546	
10.0	0.0	0.0	0.0	0.0	0.003	-0.527	
11.0	0.0	0.0	0.0	0.0	0.006	-0.313	
12.0	0.0	0.0	0.0	0.0	-0.016	-0.038	
13.0	0.0	0.0	0.0	0.0	-0.048	0.6	
14.0	0.0	0.0	0.0	0.0	-0.029	1.629	
15.0	0.0	0.0	0.0	0.0	0.051	1.086	
0.0	0.0	0.0	0.0	0.0	0.042	0.214	
1.0	0.0	0.0	0.0	0.0	0.045	-0.69	
2.0	0.0	0.0	0.0	0.0	0.057	-0.632	
3.0	0.0	0.0	0.0	0.0	0.054	-0.406	
4.0	0.0	0.0	0.0	0.0	0.01	-0.141	
5.0	0.0	0.0	0.0	0.0	-0.022	-0.045	
6.0	0.0	0.0	0.0	0.0	-0.042	-0.198	
7.0	0.0	0.0	0.0	0.0	-0.038	-0.128	
8.0	0.0	0.0	0.0	0.0	-0.048	-0.125	
9.0	0.0	0.0	0.0	0.0	-0.073	-0.188	
10.0	0.0	0.0	0.0	0.0	-0.08	-0.786	
11.0	0.0	0.0	0.0	0.0	-0.038	0.07	
12.0	0.0	0.0	0.0	0.0	0.019	0.345	
13.0	0.0	0.0	0.0	0.0	0.045	0.01	
14.0	0.0	0.0	0.0	0.0	0.029	0.003	
15.0	0.0	0.0	0.0	0.0	0.026	0.214	
0.0	0.0	0.0	0.0	0.0	0.016	0.265	
1.0	0.0	0.0	0.0	0.0	0.045	0.128	
2.0	0.0	0.0	0.0	0.0	0.051	0.038	
3.0	0.0	0.0	0.0	0.0	0.029	-0.01	
4.0	0.0	0.0	0.0	0.0	-0.003	-0.093	
5.0	0.0	0.0	0.0	0.0	-0.013	-0.083	
6.0	0.0	0.0	0.0	0.0	-0.029	-0.099	
7.0	0.0	0.0	0.0	0.0	-0.045	-0.118	
8.0	0.0	0.0	0.0	0.0	-0.048	-0.358	
9.0	0.0	0.0	0.0	0.0	-0.045	-0.444	
10.0	0.0	0.0	0.0	0.0	-0.026	-0.677	
11.0	0.0	0.0	0.0	0.0	-0.026	-0.808	
12.0	0.0	0.0	0.0	0.0	-0.003	-0.485	
13.0	0.0	0.0	0.0	0.0	0.006	-0.026	
14.0	0.0	0.0	0.0	0.0	0.013	0.546	
15.0	0.0	0.0	0.0	0.0	0.006	1.405	
0.0	0.0	0.0	0.0	0.0	-0.003	1.629	
1.0	0.0	0.0	0.0	0.0	0.016	1.182	
2.0	0.0	0.0	0.0	0.0	0.051	0.0	
3.0	0.0	0.0	0.0	0.0	0.048	-0.604	
4.0	0.0	0.0	0.0	0.0	0.032	-0.821	
5.0	0.0	0.0	0.0	0.0	0.013	-0.744	
6.0	0.0	0.0	0.0	0.0	-0.006	1.121	
7.0	0.0	0.0	0.0	0.0	0.01	1.019	
8.0	0.0	0.0	0.0	0.0	0.003	-0.208	
9.0	0.0	0.0	0.0	0.0	0.054	-1.028	
10.0	0.0	0.0	0.0	0.0	0.054	-0.783	
11.0	0.0	0.0	0.0	0.0	-0.003	-0.501	
12.0	0.0	0.0	0.0	0.0	-0.042	0.169	
13.0	0.0	0.0	0.0	0.0	-0.045	0.527	
14.0	0.0	0.0	0.0	0.0	-0.035	0.252	
15.0	0.0	0.0	0.0	0.0	-0.006	0.172	
0.0	0.0	0.0	0.0	0.0	-0.029	-0.265	
1.0	0.0	0.0	0.0	0.0	-0.048	-0.872	
2.0	0.0	0.0	0.0	0.0	-0.048	-1.325	
3.0	0.0	0.0	0.0	0.0	-0.051	-1.191	
4.0	0.0	0.0	0.0	0.0	-0.064	-0.677	
5.0	0.0	0.0	0.0	0.0	-0.064	-0.121	
6.0	0.0	0.0	0.0	0.0	-0.061	1.629	
7.0	0.0	0.0	0.0	0.0	-0.022	1.629	
8.0	0.0	0.0	0.0	0.0	0.064	0.725	
9.0	0.0	0.0	0.0	0.0	0.128	-0.386	
10.0	0.0	0.0	0.0	0.0	0.118	-0.754	
11.0	0.0	0.0	0.0	0.0	0.061	-1.022	
12.0	0.0	0.0	0.0	0.0	-0.016	-0.981	
13.0	0.0	0.0	0.0	0.0	-0.035	0.284	
14.0	0.0	0.0	0.0	0.0	-0.006	0.872	
15.0	0.0	0.0	0.0	0.0	-0.003	0.929	
0.0	0.0	0.0	0.0	0.0	0.035	-0.201	
1.0	0.0	0.0	0.0	0.0	0.067	-0.323	
2.0	0.0	0.0	0.0	0.0	0.045	-0.042	
3.0	0.0	0.0	0.0	0.0	0.019	0.163	
4.0	0.0	0.0	0.0	0.0	0.01	0.038	
5.0	0.0	0.0	0.0	0.0	-0.01	-0.281	
6.0	0.0	0.0	0.0	0.0	-0.029	-0.227	
7.0	0.0	0.0	0.0	0.0	-0.042	-0.166	
8.0	0.0	0.0	0.0	0.0	-0.051	-0.259	
9.0	0.0	0.0	0.0	0.0	-0.051	-0.051	
10.0	0.0	0.0	0.0	0.0	-0.051	-0.051	
11.0	0.0	0.0	0.0	0.0	-0.035	-0.316	
12.0	0.0	0.0	0.0	0.0	-0.019	-0.399	
13.0	0.0	0.0	0.0	0.0	-0.006	-0.249	
14.0	0.0	0.0	0.0	0.0	0.0	0.444	
15.0	0.0	0.0	0.0	0.0	0.003	0.24	
0.0	0.0	0.0	0.0	0.0	-0.029	-0.476	
1.0	0.0	0.0	0.0	0.0	-0.045	-0.022	
2.0	0.0	0.0	0.0	0.0	-0.042	-0.128	
3.0	0.0	0.0	0.0	0.0	-0.01	0.109	
4.0	0.0	0.0	0.0	0.0	-0.01	0.447	
5.0	0.0	0.0	0.0	0.0	0.016	0.687	
6.0	0.0	0.0	0.0	0.0	0.083	0.447	
7.0	0.0	0.0	0.0	0.0	0.096	0.118	
8.0	0.0	0.0	0.0	0.0	0.077	-0.073	
9.0	0.0	0.0	0.0	0.0	0.045	-0.109	
10.0	0.0	0.0	0.0	0.0	0.019	-0.153	
11.0	0.0	0.0	0.0	0.0	0.01	-0.163	
12.0	0.0	0.0	0.0	0.0	-0.016	0.022	
13.0	0.0	0.0	0.0	0.0	-0.029	0.057	
14.0	0.0	0.0	0.0	0.0	-0.042	-0.051	
15.0	0.0	0.0	0.0	0.0	-0.035	-0.287	
0.0	0.0	0.0	0.0	0.0	-0.045	-0.482	
1.0	0.0	0.0	0.0	0.0	-0.032	-0.089	
2.0	0.0	0.0	0.0	0.0	-0.026	-0.15	
3.0	0.0	0.0	0.0	0.0	-0.019	-0.335	
4.0	0.0	0.0	0.0	0.0	-0.003	0.128	
5.0	0.0	0.0	0.0	0.0	0.029	0.105	
6.0	0.0	0.0	0.0	0.0	0.048	-0.102	
7.0	0.0	0.0	0.0	0.0	0.048	-0.281	
8.0	0.0	0.0	0.0	0.0	0.019	-0.358	
9.0	0.0	0.0	0.0	0.0	-0.003	-0.6	
10.0	0.0	0.0	0.0	0.0	-0.035	-0.355	
11.0	0.0	0.0	0.0	0.0	-0.064	-0.23	
12.0	0.0	0.0	0.0	0.0	-0.08	-0.157	
13.0	0.0	0.0	0.0	0.0	-0.077	0.342	
14.0	0.0	0.0	0.0	0.0	-0.048	1.338	
15.0	0.0	0.0	0.0	0.0	0.01	1.629	
0.0	0.0	0.0	0.0	0.0	0.038	0.505	
1.0	0.0	0.0	0.0	0.0	0.07	-0.214	
2.0	0.0	0.0	0.0	0.0	0.073	-0.367	
3.0	0.0	0.0	0.0	0.0	0.042	0.214	
4.0	0.0	0.0	0.0	0.0	0.035	-0.479	
5.0	0.0	0.0	0.0	0.0	0.032	-0.885	
6.0	0.0	0.0	0.0	0.0	0.01	-0.418	
7.0	0.0	0.0	0.0	0.0	-0.003	0.15	
8.0	0.0	0.0	0.0	0.0	-0.022	0.524	
9.0	0.0	0.0	0.0	0.0	-0.022	0.3	
10.0	0.0	0.0	0.0	0.0	0.0	-0.089	
11.0	0.0	0.0	0.0	0.0	0.019	-0.227	
12.0	0.0	0.0	0.0	0.0	0.013	-0.195	
13.0	0.0	0.0	0.0	0.0	-0.006	-0.182	
14.0	0.0	0.0	0.0	0.0	-0.019	-0.335	
15.0	0.0	0.0	0.0	0.0	-0.038	0.134	
0.0	0.0	0.0	0.0	0.0	-0.057	-0.038	
1.0	0.0	0.0	0.0	0.0	-0.051	-0.581	
2.0	0.0	0.0	0.0	0.0	-0.061	0.054	
3.0	0.0	0.0	0.0	0.0	-0.042	0.195	
4.0	0.0	0.0	0.0	0.0	0.022	0.08	
5.0	0.0	0.0	0.0	0.0	0.07	0.198	
6.0	0.0	0.0	0.0	0.0	0.08	0.281	
7.0	0.0	0.0	0.0	0.0	0.061	-0.096	
8.0	0.0	0.0	0.0	0.0	0.038	-0.016	
9.0	0.0	0.0	0.0	0.0	0.022	0.01	
10.0	0.0	0.0	0.0	0.0	0.0	-0.6	
11.0	0.0	0.0	0.0	0.0	-0.006	-0.195	
12.0	0.0	0.0	0.0	0.0	-0.026	0.125	
13.0	0.0	0.0	0.0	0.0	-0.026	0.153	
14.0	0.0	0.0	0.0	0.0	-0.01	-0.109	
15.0	0.0	0.0	0.0	0.0	-0.003	-0.198	
0.0	0.0	0.0	0.0	0.0	-0.01	-0.511	
1.0	0.0	0.0	0.0	0.0	-0.026	0.128	
2.0	0.0	0.0	0.0	0.0	-0.038	0.508	
3.0	0.0	0.0	0.0	0.0	-0.035	0.434	
4.0	0.0	0.0	0.0	0.0	-0.042	0.121	
5.0	0.0	0.0	0.0	0.0	-0.032	0.767	
6.0	0.0	0.0	0.0	0.0	-0.01	0.105	
7.0	0.0	0.0	0.0	0.0	0.026	-0.278	
8.0	0.0	0.0	0.0	0.0	0.0	-0.329	
9.0	0.0	0.0	0.0	0.0	0.0	-0.779	
10.0	0.0	0.0	0.0	0.0	0.0	-0.319	
11.0	0.0	0.0	0.0	0.0	0.019	0.067	
12.0	0.0	0.0	0.0	0.0	0.016	-1.041	
13.0	0.0	0.0	0.0	0.0	-0.035	-0.862	
14.0	0.0	0.0	0.0	0.0	-0.064	1.07	
15.0	0.0	0.0	0.0	0.0	-0.022	0.46	
0.0	0.0	0.0	0.0	0.0	0.045	0.38	
1.0	0.0	0.0	0.0	0.0	0.099	0.441	
2.0	0.0	0.0	0.0	0.0	0.093	0.163	
3.0	0.0	0.0	0.0	0.0	0.064	0.08	
4.0	0.0	0.0	0.0	0.0	0.0	0.447	
5.0	0.0	0.0	0.0	0.0	-0.013	0.441	
6.0	0.0	0.0	0.0	0.0	0.003	0.153	
7.0	0.0	0.0	0.0	0.0	0.035	0.013	
8.0	0.0	0.0	0.0	0.0	0.026	-0.035	
9.0	0.0	0.0	0.0	0.0	-0.026	-0.147	
10.0	0.0	0.0	0.0	0.0	-0.061	-0.632	
11.0	0.0	0.0	0.0	0.0	-0.057	-0.738	
12.0	0.0	0.0	0.0	0.0	-0.051	-0.134	
13.0	0.0	0.0	0.0	0.0	-0.026	0.01	
14.0	0.0	0.0	0.0	0.0	-0.006	0.067	
15.0	0.0	0.0	0.0	0.0	-0.01	0.089	
0.0	0.0	0.0	0.0	0.0	-0.013	-0.294	
1.0	0.0	0.0	0.0	0.0	-0.01	-0.505	
2.0	0.0	0.0	0.0	0.0	-0.019	-0.776	
3.0	0.0	0.0	0.0	0.0	-0.029	-0.626	
4.0	0.0	0.0	0.0	0.0	-0.051	0.533	
5.0	0.0	0.0	0.0	0.0	-0.045	1.629	
6.0	0.0	0.0	0.0	0.0	0.019	0.422	
7.0	0.0	0.0	0.0	0.0	0.051	0.048	
8.0	0.0	0.0	0.0	0.0	0.045	-0.287	
9.0	0.0	0.0	0.0	0.0	0.032	-0.776	
10.0	0.0	0.0	0.0	0.0	0.019	-0.632	
11.0	0.0	0.0	0.0	0.0	0.038	0.37	
12.0	0.0	0.0	0.0	0.0	0.042	0.814	
13.0	0.0	0.0	0.0	0.0	0.051	0.361	
14.0	0.0	0.0	0.0	0.0	0.029	-0.137	
15.0	0.0	0.0	0.0	0.0	0.006	-0.243	
0.0	0.0	0.0	0.0	0.0	0.0	-0.179	
1.0	0.0	0.0	0.0	0.0	-0.022	-0.121	
2.0	0.0	0.0	0.0	0.0	-0.038	-0.073	
3.0	0.0	0.0	0.0	0.0	-0.051	-0.035	
4.0	0.0	0.0	0.0	0.0	-0.051	-0.042	
5.0	0.0	0.0	0.0	0.0	-0.035	-0.099	
6.0	0.0	0.0	0.0	0.0	-0.035	-0.144	
7.0	0.0	0.0	0.0	0.0	-0.013	-0.527	
8.0	0.0	0.0	0.0	0.0	-0.026	-0.706	
9.0	0.0	0.0	0.0	0.0	-0.032	-0.466	
10.0	0.0	0.0	0.0	0.0	-0.026	-0.262	
11.0	0.0	0.0	0.0	0.0	-0.029	0.045	
12.0	0.0	0.0	0.0	0.0	-0.026	1.629	
13.0	0.0	0.0	0.0	0.0	0.003	1.076	
14.0	0.0	0.0	0.0	0.0	0.051	-0.051	
15.0	0.0	0.0	0.0	0.0	0.07	-0.364	
0.0	0.0	0.0	0.0	0.0	0.051	-0.671	
1.0	0.0	0.0	0.0	0.0	0.022	-0.355	
2.0	0.0	0.0	0.0	0.0	0.0	-0.438	
3.0	0.0	0.0	0.0	0.0	-0.003	-0.524	
4.0	0.0	0.0	0.0	0.0	-0.01	-0.789	
5.0	0.0	0.0	0.0	0.0	-0.051	1.383	
6.0	0.0	0.0	0.0	0.0	0.013	1.629	
7.0	0.0	0.0	0.0	0.0	0.057	0.501	
8.0	0.0	0.0	0.0	0.0	0.064	-0.476	
9.0	0.0	0.0	0.0	0.0	0.035	-0.569	
10.0	0.0	0.0	0.0	0.0	-0.01	-0.386	
11.0	0.0	0.0	0.0	0.0	-0.038	-0.131	
12.0	0.0	0.0	0.0	0.0	-0.035	0.038	
13.0	0.0	0.0	0.0	0.0	-0.016	0.105	
14.0	0.0	0.0	0.0	0.0	-0.026	-0.23	
15.0	0.0	0.0	0.0	0.0	-0.035	-0.118	
0.0	0.0	0.0	0.0	0.0	-0.022	-0.348	
1.0	0.0	0.0	0.0	0.0	-0.026	-1.099	
2.0	0.0	0.0	0.0	0.0	-0.045	-0.166	
3.0	0.0	0.0	0.0	0.0	-0.045	1.06	
4.0	0.0	0.0	0.0	0.0	0.013	0.549	
5.0	0.0	0.0	0.0	0.0	0.045	-0.466	
6.0	0.0	0.0	0.0	0.0	0.026	-1.204	
7.0	0.0	0.0	0.0	0.0	-0.029	-0.332	
8.0	0.0	0.0	0.0	0.0	0.0	0.843	
9.0	0.0	0.0	0.0	0.0	0.08	0.703	
10.0	0.0	0.0	0.0	0.0	0.125	0.696	
11.0	0.0	0.0	0.0	0.0	0.105	-0.013	
12.0	0.0	0.0	0.0	0.0	0.048	-0.204	
13.0	0.0	0.0	0.0	0.0	-0.013	-0.696	
14.0	0.0	0.0	0.0	0.0	-0.083	-0.945	
15.0	0.0	0.0	0.0	0.0	-0.102	0.907	
0.0	0.0	0.0	0.0	0.0	-0.054	1.121	
1.0	0.0	0.0	0.0	0.0	-0.013	0.584	
2.0	0.0	0.0	0.0	0.0	0.026	-0.31	
3.0	0.0	0.0	0.0	0.0	0.0	-0.856	
4.0	0.0	0.0	0.0	0.0	-0.019	-0.699	
5.0	0.0	0.0	0.0	0.0	-0.022	0.022	
6.0	0.0	0.0	0.0	0.0	0.013	-0.249	
7.0	0.0	0.0	0.0	0.0	0.0	0.578	
8.0	0.0	0.0	0.0	0.0	0.026	0.501	
9.0	0.0	0.0	0.0	0.0	0.051	-0.051	
10.0	0.0	0.0	0.0	0.0	0.042	-0.246	
11.0	0.0	0.0	0.0	0.0	-0.003	-0.348	
12.0	0.0	0.0	0.0	0.0	-0.048	-0.303	
13.0	0.0	0.0	0.0	0.0	-0.077	-0.386	
14.0	0.0	0.0	0.0	0.0	-0.083	-0.942	
15.0	0.0	0.0	0.0	0.0	-0.093	-0.224	
0.0	0.0	0.0	0.0	0.0	-0.054	0.607	
1.0	0.0	0.0	0.0	0.0	-0.016	0.824	
2.0	0.0	0.0	0.0	0.0	0.022	-0.217	
3.0	0.0	0.0	0.0	0.0	0.051	-0.904	
4.0	0.0	0.0	0.0	0.0	0.083	-0.45	
5.0	0.0	0.0	0.0	0.0	0.102	0.508	
6.0	0.0	0.0	0.0	0.0	0.054	0.144	
7.0	0.0	0.0	0.0	0.0	-0.003	1.108	
8.0	0.0	0.0	0.0	0.0	0.01	1.185	
9.0	0.0	0.0	0.0	0.0	0.038	0.252	
10.0	0.0	0.0	0.0	0.0	0.022	0.15	
11.0	0.0	0.0	0.0	0.0	0.019	-0.125	
12.0	0.0	0.0	0.0	0.0	0.003	-0.109	
13.0	0.0	0.0	0.0	0.0	-0.038	0.096	
14.0	0.0	0.0	0.0	0.0	-0.051	-0.431	
15.0	0.0	0.0	0.0	0.0	-0.022	-0.339	
0.0	0.0	0.0	0.0	0.0	-0.032	-0.278	
1.0	0.0	0.0	0.0	0.0	-0.026	-0.361	
2.0	0.0	0.0	0.0	0.0	-0.029	0.022	
3.0	0.0	0.0	0.0	0.0	-0.038	0.249	
4.0	0.0	0.0	0.0	0.0	-0.038	-0.616	
5.0	0.0	0.0	0.0	0.0	-0.026	-0.383	
6.0	0.0	0.0	0.0	0.0	0.006	-0.757	
7.0	0.0	0.0	0.0	0.0	0.006	0.284	
8.0	0.0	0.0	0.0	0.0	-0.006	1.0	
9.0	0.0	0.0	0.0	0.0	0.022	0.367	
10.0	0.0	0.0	0.0	0.0	0.045	-0.013	
11.0	0.0	0.0	0.0	0.0	0.022	-0.607	
12.0	0.0	0.0	0.0	0.0	-0.026	-0.808	
13.0	0.0	0.0	0.0	0.0	-0.08	-1.635	
14.0	0.0	0.0	0.0	0.0	-0.083	0.089	
15.0	0.0	0.0	0.0	0.0	0.038	1.166	
0.0	0.0	0.0	0.0	0.0	0.086	0.476	
1.0	0.0	0.0	0.0	0.0	0.042	0.719	
2.0	0.0	0.0	0.0	0.0	0.07	0.942	
3.0	0.0	0.0	0.0	0.0	0.073	-0.208	
4.0	0.0	0.0	0.0	0.0	0.035	-0.339	
5.0	0.0	0.0	0.0	0.0	0.006	-0.125	
6.0	0.0	0.0	0.0	0.0	-0.029	-0.527	
7.0	0.0	0.0	0.0	0.0	-0.073	0.974	
8.0	0.0	0.0	0.0	0.0	-0.048	1.15	
9.0	0.0	0.0	0.0	0.0	-0.013	-0.153	
10.0	0.0	0.0	0.0	0.0	0.029	-0.313	
11.0	0.0	0.0	0.0	0.0	0.038	-0.476	
12.0	0.0	0.0	0.0	0.0	0.013	-0.942	
13.0	0.0	0.0	0.0	0.0	0.006	-0.195	
14.0	0.0	0.0	0.0	0.0	-0.003	0.125	
15.0	0.0	0.0	0.0	0.0	-0.016	0.144	
0.0	0.0	0.0	0.0	0.0	-0.003	-0.441	
1.0	0.0	0.0	0.0	0.0	0.003	-0.227	
2.0	0.0	0.0	0.0	0.0	-0.032	-0.923	
3.0	0.0	0.0	0.0	0.0	-0.038	-0.026	
4.0	0.0	0.0	0.0	0.0	0.016	0.971	
5.0	0.0	0.0	0.0	0.0	0.016	0.067	
6.0	0.0	0.0	0.0	0.0	-0.042	-0.032	
7.0	0.0	0.0	0.0	0.0	-0.073	-0.01	
8.0	0.0	0.0	0.0	0.0	-0.038	-0.003	
9.0	0.0	0.0	0.0	0.0	0.051	1.45	
10.0	0.0	0.0	0.0	0.0	0.08	0.6	
11.0	0.0	0.0	0.0	0.0	0.038	-0.38	
12.0	0.0	0.0	0.0	0.0	-0.032	-1.105	
13.0	0.0	0.0	0.0	0.0	-0.089	-1.635	
14.0	0.0	0.0	0.0	0.0	-0.083	-0.434	
15.0	0.0	0.0	0.0	0.0	-0.006	1.188	
0.0	0.0	0.0	0.0	0.0	0.067	0.875	
1.0	0.0	0.0	0.0	0.0	0.105	0.83	
2.0	0.0	0.0	0.0	0.0	0.064	0.722	
3.0	0.0	0.0	0.0	0.0	0.038	-0.607	
4.0	0.0	0.0	0.0	0.0	0.003	-1.204	
5.0	0.0	0.0	0.0	0.0	-0.026	-0.559	
6.0	0.0	0.0	0.0	0.0	-0.022	0.307	
7.0	0.0	0.0	0.0	0.0	-0.003	0.917	
8.0	0.0	0.0	0.0	0.0	0.013	0.61	
9.0	0.0	0.0	0.0	0.0	0.013	-0.147	
10.0	0.0	0.0	0.0	0.0	0.006	-0.409	
11.0	0.0	0.0	0.0	0.0	-0.01	-0.926	
12.0	0.0	0.0	0.0	0.0	-0.035	-0.073	
13.0	0.0	0.0	0.0	0.0	-0.045	0.501	
14.0	0.0	0.0	0.0	0.0	-0.016	-0.022	
15.0	0.0	0.0	0.0	0.0	0.01	-0.147	
0.0	0.0	0.0	0.0	0.0	-0.013	-0.198	
1.0	0.0	0.0	0.0	0.0	-0.035	-0.182	
2.0	0.0	0.0	0.0	0.0	-0.032	-0.345	
3.0	0.0	0.0	0.0	0.0	-0.035	0.31	
4.0	0.0	0.0	0.0	0.0	-0.067	0.636	
5.0	0.0	0.0	0.0	0.0	-0.051	0.45	
6.0	0.0	0.0	0.0	0.0	0.035	-1.105	
7.0	0.0	0.0	0.0	0.0	0.07	-0.578	
8.0	0.0	0.0	0.0	0.0	0.048	0.677	
9.0	0.0	0.0	0.0	0.0	0.032	0.572	
10.0	0.0	0.0	0.0	0.0	0.045	-0.393	
11.0	0.0	0.0	0.0	0.0	0.01	-0.236	
12.0	0.0	0.0	0.0	0.0	-0.003	0.137	
13.0	0.0	0.0	0.0	0.0	-0.003	0.112	
14.0	0.0	0.0	0.0	0.0	-0.006	0.022	
15.0	0.0	0.0	0.0	0.0	-0.003	-0.099	
0.0	0.0	0.0	0.0	0.0	-0.006	-0.374	
1.0	0.0	0.0	0.0	0.0	-0.01	-0.038	
2.0	0.0	0.0	0.0	0.0	-0.029	0.121	
3.0	0.0	0.0	0.0	0.0	-0.022	-0.147	
4.0	0.0	0.0	0.0	0.0	-0.019	-0.211	
5.0	0.0	0.0	0.0	0.0	-0.042	-0.07	
6.0	0.0	0.0	0.0	0.0	-0.026	-0.096	
7.0	0.0	0.0	0.0	0.0	-0.003	0.195	
8.0	0.0	0.0	0.0	0.0	-0.006	0.562	
9.0	0.0	0.0	0.0	0.0	0.01	-0.08	
10.0	0.0	0.0	0.0	0.0	0.022	-0.444	
11.0	0.0	0.0	0.0	0.0	0.003	-0.814	
12.0	0.0	0.0	0.0	0.0	-0.026	0.307	
13.0	0.0	0.0	0.0	0.0	-0.016	1.242	
14.0	0.0	0.0	0.0	0.0	0.042	0.668	
15.0	0.0	0.0	0.0	0.0	0.08	-0.744	
0.0	0.0	0.0	0.0	0.0	0.045	-0.652	
1.0	0.0	0.0	0.0	0.0	0.029	0.144	
2.0	0.0	0.0	0.0	0.0	0.006	-0.485	
3.0	0.0	0.0	0.0	0.0	-0.029	-0.741	
4.0	0.0	0.0	0.0	0.0	-0.029	-0.412	
5.0	0.0	0.0	0.0	0.0	-0.013	0.249	
6.0	0.0	0.0	0.0	0.0	-0.006	0.31	
7.0	0.0	0.0	0.0	0.0	0.035	1.006	
8.0	0.0	0.0	0.0	0.0	0.042	0.827	
9.0	0.0	0.0	0.0	0.0	0.048	-0.259	
10.0	0.0	0.0	0.0	0.0	0.026	0.176	
11.0	0.0	0.0	0.0	0.0	-0.032	0.45	
12.0	0.0	0.0	0.0	0.0	-0.054	0.07	
13.0	0.0	0.0	0.0	0.0	-0.013	-0.406	
14.0	0.0	0.0	0.0	0.0	-0.022	-0.645	
15.0	0.0	0.0	0.0	0.0	-0.029	-1.242	
0.0	0.0	0.0	0.0	0.0	-0.003	0.715	
1.0	0.0	0.0	0.0	0.0	0.016	0.616	
2.0	0.0	0.0	0.0	0.0	0.019	-0.016	
3.0	0.0	0.0	0.0	0.0	0.01	-0.307	
4.0	0.0	0.0	0.0	0.0	-0.006	-0.157	
5.0	0.0	0.0	0.0	0.0	-0.022	0.054	
6.0	0.0	0.0	0.0	0.0	-0.029	0.048	
7.0	0.0	0.0	0.0	0.0	-0.038	-0.316	
8.0	0.0	0.0	0.0	0.0	-0.016	-0.294	
9.0	0.0	0.0	0.0	0.0	0.026	0.249	
10.0	0.0	0.0	0.0	0.0	0.054	-0.118	
11.0	0.0	0.0	0.0	0.0	0.016	-0.367	
12.0	0.0	0.0	0.0	0.0	-0.016	-0.163	
13.0	0.0	0.0	0.0	0.0	-0.038	0.457	
14.0	0.0	0.0	0.0	0.0	-0.029	0.728	
15.0	0.0	0.0	0.0	0.0	-0.01	-0.118	
0.0	0.0	0.0	0.0	0.0	0.026	-0.37	
1.0	0.0	0.0	0.0	0.0	0.026	-0.026	
2.0	0.0	0.0	0.0	0.0	0.019	-0.035	
3.0	0.0	0.0	0.0	0.0	0.01	-0.093	
4.0	0.0	0.0	0.0	0.0	-0.003	-0.045	
5.0	0.0	0.0	0.0	0.0	-0.013	-0.01	
6.0	0.0	0.0	0.0	0.0	-0.022	-0.045	
7.0	0.0	0.0	0.0	0.0	-0.022	-0.112	
8.0	0.0	0.0	0.0	0.0	0.0	-0.061	
9.0	0.0	0.0	0.0	0.0	0.006	0.048	
10.0	0.0	0.0	0.0	0.0	-0.013	0.0	
11.0	0.0	0.0	0.0	0.0	-0.038	-0.105	
12.0	0.0	0.0	0.0	0.0	-0.051	-0.029	
13.0	0.0	0.0	0.0	0.0	-0.054	0.319	
14.0	0.0	0.0	0.0	0.0	-0.029	-0.929	
15.0	0.0	0.0	0.0	0.0	0.054	-0.549	
0.0	0.0	0.0	0.0	0.0	0.051	0.256	
1.0	0.0	0.0	0.0	0.0	0.099	1.265	
2.0	0.0	0.0	0.0	0.0	0.048	0.846	
3.0	0.0	0.0	0.0	0.0	0.022	-0.399	
4.0	0.0	0.0	0.0	0.0	0.016	0.268	
5.0	0.0	0.0	0.0	0.0	0.0	-0.195	
6.0	0.0	0.0	0.0	0.0	-0.026	-0.808	
7.0	0.0	0.0	0.0	0.0	0.019	-0.508	
8.0	0.0	0.0	0.0	0.0	0.029	-0.003	
9.0	0.0	0.0	0.0	0.0	-0.022	0.256	
10.0	0.0	0.0	0.0	0.0	-0.061	0.3	
11.0	0.0	0.0	0.0	0.0	-0.048	0.607	
12.0	0.0	0.0	0.0	0.0	-0.029	-0.01	
13.0	0.0	0.0	0.0	0.0	-0.016	-0.236	
14.0	0.0	0.0	0.0	0.0	-0.003	-0.233	
15.0	0.0	0.0	0.0	0.0	-0.006	-0.147	
0.0	0.0	0.0	0.0	0.0	0.003	0.15	
1.0	0.0	0.0	0.0	0.0	-0.003	0.137	
2.0	0.0	0.0	0.0	0.0	-0.013	0.096	
3.0	0.0	0.0	0.0	0.0	-0.016	-0.345	
4.0	0.0	0.0	0.0	0.0	-0.019	-0.457	
5.0	0.0	0.0	0.0	0.0	0.013	0.038	
6.0	0.0	0.0	0.0	0.0	0.016	-0.096	
7.0	0.0	0.0	0.0	0.0	0.003	-0.182	
8.0	0.0	0.0	0.0	0.0	-0.013	-0.144	
9.0	0.0	0.0	0.0	0.0	-0.003	-0.051	
10.0	0.0	0.0	0.0	0.0	-0.013	0.367	
11.0	0.0	0.0	0.0	0.0	-0.006	0.287	
12.0	0.0	0.0	0.0	0.0	0.022	0.016	
13.0	0.0	0.0	0.0	0.0	0.016	0.022	
14.0	0.0	0.0	0.0	0.0	0.003	-0.22	
15.0	0.0	0.0	0.0	0.0	0.003	-0.153	
0.0	0.0	0.0	0.0	0.0	0.01	0.0	
1.0	0.0	0.0	0.0	0.0	0.022	0.035	
2.0	0.0	0.0	0.0	0.0	0.022	0.016	
3.0	0.0	0.0	0.0	0.0	0.013	-0.032	
4.0	0.0	0.0	0.0	0.0	0.013	0.035	
5.0	0.0	0.0	0.0	0.0	0.003	0.077	
6.0	0.0	0.0	0.0	0.0	-0.019	0.048	
7.0	0.0	0.0	0.0	0.0	-0.016	0.243	
8.0	0.0	0.0	0.0	0.0	-0.035	-0.045	
9.0	0.0	0.0	0.0	0.0	-0.019	-0.198	
10.0	0.0	0.0	0.0	0.0	0.013	-0.121	
11.0	0.0	0.0	0.0	0.0	0.0	0.332	
12.0	0.0	0.0	0.0	0.0	0.01	-0.003	
13.0	0.0	0.0	0.0	0.0	0.019	-0.115	
14.0	0.0	0.0	0.0	0.0	0.0	-0.073	
15.0	0.0	0.0	0.0	0.0	-0.01	0.096	
0.0	0.0	0.0	0.0	0.0	-0.003	0.0	
1.0	0.0	0.0	0.0	0.0	-0.003	-0.508	
2.0	0.0	0.0	0.0	0.0	-0.016	-0.169	
3.0	0.0	0.0	0.0	0.0	-0.029	-0.399	
4.0	0.0	0.0	0.0	0.0	-0.006	-0.38	
5.0	0.0	0.0	0.0	0.0	-0.013	0.294	
6.0	0.0	0.0	0.0	0.0	-0.035	0.358	
7.0	0.0	0.0	0.0	0.0	-0.045	0.326	
8.0	0.0	0.0	0.0	0.0	-0.022	0.185	
9.0	0.0	0.0	0.0	0.0	-0.022	0.355	
10.0	0.0	0.0	0.0	0.0	0.003	0.045	
11.0	0.0	0.0	0.0	0.0	0.035	-1.354	
12.0	0.0	0.0	0.0	0.0	0.042	-0.454	
13.0	0.0	0.0	0.0	0.0	0.038	0.278	
14.0	0.0	0.0	0.0	0.0	0.054	0.508	
15.0	0.0	0.0	0.0	0.0	0.022	0.738	
0.0	0.0	0.0	0.0	0.0	0.01	0.125	
1.0	0.0	0.0	0.0	0.0	-0.01	-0.086	
2.0	0.0	0.0	0.0	0.0	0.003	-0.07	
3.0	0.0	0.0	0.0	0.0	0.003	-0.032	
4.0	0.0	0.0	0.0	0.0	-0.003	-0.057	
5.0	0.0	0.0	0.0	0.0	-0.013	-0.115	
6.0	0.0	0.0	0.0	0.0	-0.032	-0.032	
7.0	0.0	0.0	0.0	0.0	-0.029	-0.192	
8.0	0.0	0.0	0.0	0.0	-0.019	-0.035	
9.0	0.0	0.0	0.0	0.0	0.016	0.01	
10.0	0.0	0.0	0.0	0.0	0.006	-0.035	
11.0	0.0	0.0	0.0	0.0	0.006	-0.061	
12.0	0.0	0.0	0.0	0.0	0.0	-0.057	
13.0	0.0	0.0	0.0	0.0	0.003	-0.042	
14.0	0.0	0.0	0.0	0.0	-0.003	-0.026	
15.0	0.0	0.0	0.0	0.0	-0.003	-0.006	
0.0	0.0	0.0	0.0	0.0	0.013	0.032	
1.0	0.0	0.0	0.0	0.0	-0.016	0.08	
2.0	0.0	0.0	0.0	0.0	-0.045	-0.019	
3.0	0.0	0.0	0.0	0.0	-0.016	-0.182	
4.0	0.0	0.0	0.0	0.0	-0.019	-0.313	
5.0	0.0	0.0	0.0	0.0	-0.016	-0.639	
6.0	0.0	0.0	0.0	0.0	-0.006	-0.731	
7.0	0.0	0.0	0.0	0.0	-0.006	-0.026	
8.0	0.0	0.0	0.0	0.0	0.006	0.39	
9.0	0.0	0.0	0.0	0.0	0.045	1.31	
10.0	0.0	0.0	0.0	0.0	0.042	0.811	
11.0	0.0	0.0	0.0	0.0	0.029	0.105	
12.0	0.0	0.0	0.0	0.0	0.032	-0.128	
13.0	0.0	0.0	0.0	0.0	0.026	-0.109	
14.0	0.0	0.0	0.0	0.0	0.019	-0.157	
15.0	0.0	0.0	0.0	0.0	0.016	-0.316	
0.0	0.0	0.0	0.0	0.0	-0.006	-0.268	
1.0	0.0	0.0	0.0	0.0	-0.026	0.0	
2.0	0.0	0.0	0.0	0.0	-0.016	0.498	
3.0	0.0	0.0	0.0	0.0	-0.029	0.47	
4.0	0.0	0.0	0.0	0.0	-0.038	-0.128	
5.0	0.0	0.0	0.0	0.0	-0.026	-0.415	
6.0	0.0	0.0	0.0	0.0	-0.016	-0.454	
7.0	0.0	0.0	0.0	0.0	-0.01	-0.38	
8.0	0.0	0.0	0.0	0.0	-0.01	-0.297	
9.0	0.0	0.0	0.0	0.0	-0.006	0.172	
10.0	0.0	0.0	0.0	0.0	-0.006	-0.201	
11.0	0.0	0.0	0.0	0.0	-0.029	-0.271	
12.0	0.0	0.0	0.0	0.0	0.0	-0.572	
13.0	0.0	0.0	0.0	0.0	0.01	0.367	
14.0	0.0	0.0	0.0	0.0	0.016	1.105	
15.0	0.0	0.0	0.0	0.0	0.032	0.374	
0.0	0.0	0.0	0.0	0.0	0.045	-0.077	
1.0	0.0	0.0	0.0	0.0	0.003	-0.163	
2.0	0.0	0.0	0.0	0.0	-0.013	-0.045	
3.0	0.0	0.0	0.0	0.0	-0.01	-0.042	
4.0	0.0	0.0	0.0	0.0	-0.006	-0.054	
5.0	0.0	0.0	0.0	0.0	-0.006	-0.054	
6.0	0.0	0.0	0.0	0.0	0.01	-0.064	
7.0	0.0	0.0	0.0	0.0	0.0	-0.115	
8.0	0.0	0.0	0.0	0.0	-0.003	-0.147	
9.0	0.0	0.0	0.0	0.0	0.003	-0.08	
10.0	0.0	0.0	0.0	0.0	0.019	0.026	
11.0	0.0	0.0	0.0	0.0	-0.006	0.316	
12.0	0.0	0.0	0.0	0.0	-0.01	-0.192	
13.0	0.0	0.0	0.0	0.0	-0.003	-0.214	
14.0	0.0	0.0	0.0	0.0	-0.003	-0.112	
15.0	0.0	0.0	0.0	0.0	-0.006	-0.045	
0.0	0.0	0.0	0.0	0.0	0.003	-0.051	
1.0	0.0	0.0	0.0	0.0	0.016	0.208	
2.0	0.0	0.0	0.0	0.0	-0.01	-0.051	
3.0	0.0	0.0	0.0	0.0	-0.022	-0.227	
4.0	0.0	0.0	0.0	0.0	-0.01	-0.022	
5.0	0.0	0.0	0.0	0.0	0.013	0.16	
6.0	0.0	0.0	0.0	0.0	0.013	-0.048	
7.0	0.0	0.0	0.0	0.0	0.006	0.01	
8.0	0.0	0.0	0.0	0.0	-0.003	-0.006	
9.0	0.0	0.0	0.0	0.0	-0.01	0.038	
10.0	0.0	0.0	0.0	0.0	-0.022	-0.029	
11.0	0.0	0.0	0.0	0.0	-0.022	-0.045	
12.0	0.0	0.0	0.0	0.0	0.006	0.029	
13.0	0.0	0.0	0.0	0.0	0.013	0.038	
14.0	0.0	0.0	0.0	0.0	0.019	0.054	
15.0	0.0	0.0	0.0	0.0	0.016	0.054	
0.0	0.0	0.0	0.0	0.0	0.019	0.006	
1.0	0.0	0.0	0.0	0.0	0.0	-0.16	
2.0	0.0	0.0	0.0	0.0	0.01	-0.125	
3.0	0.0	0.0	0.0	0.0	0.0	0.07	
4.0	0.0	0.0	0.0	0.0	-0.022	-0.169	
5.0	0.0	0.0	0.0	0.0	-0.026	-0.348	
6.0	0.0	0.0	0.0	0.0	-0.01	0.281	
7.0	0.0	0.0	0.0	0.0	-0.003	0.396	
8.0	0.0	0.0	0.0	0.0	0.013	0.016	
9.0	0.0	0.0	0.0	0.0	-0.003	0.147	
10.0	0.0	0.0	0.0	0.0	-0.013	-0.125	
11.0	0.0	0.0	0.0	0.0	-0.022	-0.268	
12.0	0.0	0.0	0.0	0.0	-0.01	-0.16	
13.0	0.0	0.0	0.0	0.0	-0.006	-0.089	
14.0	0.0	0.0	0.0	0.0	0.0	-0.038	
15.0	0.0	0.0	0.0	0.0	0.003	-0.022	
0.0	0.0	0.0	0.0	0.0	0.006	-0.013	
1.0	0.0	0.0	0.0	0.0	0.006	-0.003	
2.0	0.0	0.0	0.0	0.0	0.0	-0.01	
3.0	0.0	0.0	0.0	0.0	0.003	-0.019	
4.0	0.0	0.0	0.0	0.0	0.006	-0.003	
5.0	0.0	0.0	0.0	0.0	0.013	0.051	
6.0	0.0	0.0	0.0	0.0	0.016	0.029	
7.0	0.0	0.0	0.0	0.0	0.003	-0.006	
8.0	0.0	0.0	0.0	0.0	-0.006	-0.067	
9.0	0.0	0.0	0.0	0.0	-0.013	-0.054	
10.0	0.0	0.0	0.0	0.0	-0.01	-0.045	
11.0	0.0	0.0	0.0	0.0	0.003	-0.016	
12.0	0.0	0.0	0.0	0.0	-0.006	-0.029	
13.0	0.0	0.0	0.0	0.0	0.013	-0.157	
14.0	0.0	0.0	0.0	0.0	0.013	-0.147	
15.0	0.0	0.0	0.0	0.0	0.026	0.054	
0.0	0.0	0.0	0.0	0.0	0.016	0.089	
1.0	0.0	0.0	0.0	0.0	-0.013	0.438	
2.0	0.0	0.0	0.0	0.0	-0.035	0.418	
3.0	0.0	0.0	0.0	0.0	-0.032	-0.278	
4.0	0.0	0.0	0.0	0.0	-0.026	-0.214	
5.0	0.0	0.0	0.0	0.0	-0.013	-0.048	
6.0	0.0	0.0	0.0	0.0	-0.003	-0.077	
7.0	0.0	0.0	0.0	0.0	0.01	0.022	
8.0	0.0	0.0	0.0	0.0	0.006	-0.134	
9.0	0.0	0.0	0.0	0.0	0.006	-0.182	
10.0	0.0	0.0	0.0	0.0	0.019	0.061	
11.0	0.0	0.0	0.0	0.0	0.006	-0.214	
12.0	0.0	0.0	0.0	0.0	0.003	-0.281	
13.0	0.0	0.0	0.0	0.0	0.019	-0.144	
14.0	0.0	0.0	0.0	0.0	0.003	-0.118	
15.0	0.0	0.0	0.0	0.0	0.003	-0.137	
0.0	0.0	0.0	0.0	0.0	-0.026	0.495	
1.0	0.0	0.0	0.0	0.0	-0.051	0.099	
2.0	0.0	0.0	0.0	0.0	-0.003	0.313	
3.0	0.0	0.0	0.0	0.0	0.026	0.332	
4.0	0.0	0.0	0.0	0.0	0.016	-0.179	
5.0	0.0	0.0	0.0	0.0	0.019	-0.297	
6.0	0.0	0.0	0.0	0.0	0.003	-0.051	
7.0	0.0	0.0	0.0	0.0	0.003	0.045	
8.0	0.0	0.0	0.0	0.0	-0.003	0.026	
9.0	0.0	0.0	0.0	0.0	0.0	-0.038	
10.0	0.0	0.0	0.0	0.0	-0.003	-0.032	
11.0	0.0	0.0	0.0	0.0	-0.003	-0.032	
12.0	0.0	0.0	0.0	0.0	-0.003	-0.019	
13.0	0.0	0.0	0.0	0.0	-0.006	-0.016	
14.0	0.0	0.0	0.0	0.0	0.0	-0.026	
15.0	0.0	0.0	0.0	0.0	0.003	-0.022	
0.0	0.0	0.0	0.0	0.0	-0.003	-0.019	
1.0	0.0	0.0	0.0	0.0	0.0	-0.019	
2.0	0.0	0.0	0.0	0.0	0.0	-0.07	
3.0	0.0	0.0	0.0	0.0	-0.013	-0.089	
4.0	0.0	0.0	0.0	0.0	-0.003	-0.112	
5.0	0.0	0.0	0.0	0.0	0.0	-0.083	
6.0	0.0	0.0	0.0	0.0	0.0	-0.032	
7.0	0.0	0.0	0.0	0.0	0.003	0.224	
8.0	0.0	0.0	0.0	0.0	0.01	0.204	
9.0	0.0	0.0	0.0	0.0	0.0	-0.006	
10.0	0.0	0.0	0.0	0.0	-0.013	-0.045	
11.0	0.0	0.0	0.0	0.0	-0.003	-0.038	
12.0	0.0	0.0	0.0	0.0	0.006	-0.035	
13.0	0.0	0.0	0.0	0.0	0.006	-0.026	
14.0	0.0	0.0	0.0	0.0	-0.003	-0.026	
15.0	0.0	0.0	0.0	0.0	0.01	-0.022	
0.0	0.0	0.0	0.0	0.0	0.006	-0.032	
1.0	0.0	0.0	0.0	0.0	0.003	-0.032	
2.0	0.0	0.0	0.0	0.0	-0.006	-0.032	
3.0	0.0	0.0	0.0	0.0	-0.016	-0.026	
4.0	0.0	0.0	0.0	0.0	-0.01	-0.019	
5.0	0.0	0.0	0.0	0.0	0.01	0.067	
6.0	0.0	0.0	0.0	0.0	0.022	0.163	
7.0	0.0	0.0	0.0	0.0	0.019	0.176	
8.0	0.0	0.0	0.0	0.0	0.0	0.035	
9.0	0.0	0.0	0.0	0.0	-0.038	-0.383	
10.0	0.0	0.0	0.0	0.0	-0.035	-0.584	
11.0	0.0	0.0	0.0	0.0	-0.048	-0.342	
12.0	0.0	0.0	0.0	0.0	-0.045	-0.048	
13.0	0.0	0.0	0.0	0.0	-0.016	0.294	
14.0	0.0	0.0	0.0	0.0	-0.003	0.3	
15.0	0.0	0.0	0.0	0.0	0.016	0.233	
0.0	0.0	0.0	0.0	0.0	0.029	0.051	
1.0	0.0	0.0	0.0	0.0	0.048	-0.495	
2.0	0.0	0.0	0.0	0.0	0.045	-0.38	
3.0	0.0	0.0	0.0	0.0	0.022	0.434	
4.0	0.0	0.0	0.0	0.0	0.003	0.693	
5.0	0.0	0.0	0.0	0.0	0.0	0.131	
6.0	0.0	0.0	0.0	0.0	-0.003	-0.013	
7.0	0.0	0.0	0.0	0.0	0.003	-0.227	
8.0	0.0	0.0	0.0	0.0	0.006	-0.236	
9.0	0.0	0.0	0.0	0.0	-0.006	-0.029	
10.0	0.0	0.0	0.0	0.0	-0.003	-0.246	
11.0	0.0	0.0	0.0	0.0	-0.01	-0.46	
12.0	0.0	0.0	0.0	0.0	-0.013	-0.39	
13.0	0.0	0.0	0.0	0.0	-0.01	-0.39	
14.0	0.0	0.0	0.0	0.0	-0.026	-0.415	
15.0	0.0	0.0	0.0	0.0	-0.029	0.91	
0.0	0.0	0.0	0.0	0.0	-0.013	1.07	
1.0	0.0	0.0	0.0	0.0	0.006	0.125	
2.0	0.0	0.0	0.0	0.0	0.003	-0.022	
3.0	0.0	0.0	0.0	0.0	0.01	-0.307	
4.0	0.0	0.0	0.0	0.0	0.003	-0.703	
5.0	0.0	0.0	0.0	0.0	0.003	0.498	
6.0	0.0	0.0	0.0	0.0	0.013	0.217	
7.0	0.0	0.0	0.0	0.0	0.026	-0.393	
8.0	0.0	0.0	0.0	0.0	0.022	-0.418	
9.0	0.0	0.0	0.0	0.0	0.01	0.042	
10.0	0.0	0.0	0.0	0.0	-0.003	0.048	
11.0	0.0	0.0	0.0	0.0	0.0	0.795	
12.0	0.0	0.0	0.0	0.0	-0.003	0.578	
13.0	0.0	0.0	0.0	0.0	-0.013	0.048	
14.0	0.0	0.0	0.0	0.0	-0.006	-0.214	
15.0	0.0	0.0	0.0	0.0	0.003	-0.198	
0.0	0.0	0.0	0.0	0.0	-0.006	-0.141	
1.0	0.0	0.0	0.0	0.0	-0.006	-0.118	
2.0	0.0	0.0	0.0	0.0	-0.013	-0.109	
3.0	0.0	0.0	0.0	0.0	-0.019	-0.102	
4.0	0.0	0.0	0.0	0.0	-0.013	-0.08	
5.0	0.0	0.0	0.0	0.0	-0.013	-0.013	
6.0	0.0	0.0	0.0	0.0	-0.013	0.064	
7.0	0.0	0.0	0.0	0.0	-0.026	0.029	
8.0	0.0	0.0	0.0	0.0	-0.016	-0.038	
9.0	0.0	0.0	0.0	0.0	-0.003	-0.102	
10.0	0.0	0.0	0.0	0.0	0.0	-0.46	
11.0	0.0	0.0	0.0	0.0	0.019	-0.527	
12.0	0.0	0.0	0.0	0.0	0.013	0.265	
13.0	0.0	0.0	0.0	0.0	0.048	0.463	
14.0	0.0	0.0	0.0	0.0	0.051	0.227	
15.0	0.0	0.0	0.0	0.0	-0.003	0.137	
0.0	0.0	0.0	0.0	0.0	-0.029	-0.157	
1.0	0.0	0.0	0.0	0.0	-0.042	-0.099	
2.0	0.0	0.0	0.0	0.0	-0.038	-0.211	
3.0	0.0	0.0	0.0	0.0	-0.022	-0.559	
4.0	0.0	0.0	0.0	0.0	-0.006	-0.057	
5.0	0.0	0.0	0.0	0.0	0.003	0.121	
6.0	0.0	0.0	0.0	0.0	0.0	0.112	
7.0	0.0	0.0	0.0	0.0	-0.003	0.048	
8.0	0.0	0.0	0.0	0.0	-0.003	0.032	
9.0	0.0	0.0	0.0	0.0	0.006	0.035	
10.0	0.0	0.0	0.0	0.0	0.019	0.026	
11.0	0.0	0.0	0.0	0.0	0.013	0.022	
12.0	0.0	0.0	0.0	0.0	0.01	0.019	
13.0	0.0	0.0	0.0	0.0	0.013	0.01	
14.0	0.0	0.0	0.0	0.0	0.01	0.0	
15.0	0.0	0.0	0.0	0.0	0.013	0.013	
0.0	0.0	0.0	0.0	0.0	0.006	0.061	
1.0	0.0	0.0	0.0	0.0	-0.003	0.07	
2.0	0.0	0.0	0.0	0.0	-0.003	-0.128	
3.0	0.0	0.0	0.0	0.0	-0.013	-0.179	
4.0	0.0	0.0	0.0	0.0	-0.022	-0.406	
5.0	0.0	0.0	0.0	0.0	-0.003	-0.671	
6.0	0.0	0.0	0.0	0.0	-0.01	-0.725	
7.0	0.0	0.0	0.0	0.0	-0.006	0.942	
8.0	0.0	0.0	0.0	0.0	0.013	1.096	
9.0	0.0	0.0	0.0	0.0	0.006	0.15	
10.0	0.0	0.0	0.0	0.0	0.003	-0.096	
11.0	0.0	0.0	0.0	0.0	-0.006	0.192	
12.0	0.0	0.0	0.0	0.0	-0.006	0.121	
13.0	0.0	0.0	0.0	0.0	0.003	-0.006	
14.0	0.0	0.0	0.0	0.0	0.01	-0.073	
15.0	0.0	0.0	0.0	0.0	0.003	-0.086	
0.0	0.0	0.0	0.0	0.0	0.003	-0.077	
1.0	0.0	0.0	0.0	0.0	0.003	-0.077	
2.0	0.0	0.0	0.0	0.0	0.01	-0.07	
3.0	0.0	0.0	0.0	0.0	0.022	-0.07	
4.0	0.0	0.0	0.0	0.0	0.01	-0.067	
5.0	0.0	0.0	0.0	0.0	0.016	-0.07	
6.0	0.0	0.0	0.0	0.0	0.01	-0.073	
7.0	0.0	0.0	0.0	0.0	0.006	-0.064	
8.0	0.0	0.0	0.0	0.0	0.0	-0.022	
9.0	0.0	0.0	0.0	0.0	0.003	-0.016	
10.0	0.0	0.0	0.0	0.0	-0.006	-0.07	
11.0	0.0	0.0	0.0	0.0	0.0	-0.086	
12.0	0.0	0.0	0.0	0.0	0.006	-0.032	
13.0	0.0	0.0	0.0	0.0	0.0	0.115	
14.0	0.0	0.0	0.0	0.0	-0.026	0.265	
15.0	0.0	0.0	0.0	0.0	-0.038	0.214	
0.0	0.0	0.0	0.0	0.0	-0.057	0.329	
1.0	0.0	0.0	0.0	0.0	-0.029	-0.192	
2.0	0.0	0.0	0.0	0.0	0.0	-0.731	
3.0	0.0	0.0	0.0	0.0	0.003	-0.521	
4.0	0.0	0.0	0.0	0.0	0.003	-0.22	
5.0	0.0	0.0	0.0	0.0	-0.003	-0.045	
6.0	0.0	0.0	0.0	0.0	0.006	0.07	
7.0	0.0	0.0	0.0	0.0	0.019	0.243	
8.0	0.0	0.0	0.0	0.0	0.019	0.188	
9.0	0.0	0.0	0.0	0.0	0.032	0.057	
10.0	0.0	0.0	0.0	0.0	0.032	-0.105	
11.0	0.0	0.0	0.0	0.0	0.003	-0.064	
12.0	0.0	0.0	0.0	0.0	-0.003	0.137	
13.0	0.0	0.0	0.0	0.0	-0.003	0.109	
14.0	0.0	0.0	0.0	0.0	-0.022	-0.115	
15.0	0.0	0.0	0.0	0.0	-0.013	-0.265	
0.0	0.0	0.0	0.0	0.0	-0.019	-0.144	
1.0	0.0	0.0	0.0	0.0	-0.022	0.109	
2.0	0.0	0.0	0.0	0.0	-0.026	0.131	
3.0	0.0	0.0	0.0	0.0	-0.013	-0.616	
4.0	0.0	0.0	0.0	0.0	-0.01	0.281	
5.0	0.0	0.0	0.0	0.0	0.006	0.192	
6.0	0.0	0.0	0.0	0.0	0.032	-0.629	
7.0	0.0	0.0	0.0	0.0	0.019	-0.923	
8.0	0.0	0.0	0.0	0.0	-0.013	-0.361	
9.0	0.0	0.0	0.0	0.0	-0.003	1.335	
10.0	0.0	0.0	0.0	0.0	0.022	1.629	
11.0	0.0	0.0	0.0	0.0	0.061	0.434	
12.0	0.0	0.0	0.0	0.0	0.035	-0.591	
13.0	0.0	0.0	0.0	0.0	0.019	-0.712	
14.0	0.0	0.0	0.0	0.0	0.003	-0.454	
15.0	0.0	0.0	0.0	0.0	-0.029	0.128	
0.0	0.0	0.0	0.0	0.0	-0.029	-0.083	
1.0	0.0	0.0	0.0	0.0	-0.013	-0.256	
2.0	0.0	0.0	0.0	0.0	-0.006	-0.319	
3.0	0.0	0.0	0.0	0.0	-0.006	-0.064	
4.0	0.0	0.0	0.0	0.0	-0.016	-0.032	
5.0	0.0	0.0	0.0	0.0	-0.016	-0.045	
6.0	0.0	0.0	0.0	0.0	-0.013	-0.042	
7.0	0.0	0.0	0.0	0.0	-0.016	-0.035	
8.0	0.0	0.0	0.0	0.0	-0.013	-0.035	
9.0	0.0	0.0	0.0	0.0	-0.013	-0.026	
10.0	0.0	0.0	0.0	0.0	-0.013	0.0	
11.0	0.0	0.0	0.0	0.0	-0.016	-0.147	
12.0	0.0	0.0	0.0	0.0	-0.006	-0.169	
13.0	0.0	0.0	0.0	0.0	0.003	-0.067	
14.0	0.0	0.0	0.0	0.0	0.003	-0.003	
15.0	0.0	0.0	0.0	0.0	0.013	-0.054	
0.0	0.0	0.0	0.0	0.0	0.003	-0.013	
1.0	0.0	0.0	0.0	0.0	-0.048	1.07	
2.0	0.0	0.0	0.0	0.0	-0.045	0.38	
3.0	0.0	0.0	0.0	0.0	-0.003	-0.361	
4.0	0.0	0.0	0.0	0.0	0.026	-0.358	
5.0	0.0	0.0	0.0	0.0	0.042	-0.342	
6.0	0.0	0.0	0.0	0.0	0.026	-0.109	
7.0	0.0	0.0	0.0	0.0	0.01	0.006	
8.0	0.0	0.0	0.0	0.0	-0.01	0.016	
9.0	0.0	0.0	0.0	0.0	-0.01	0.109	
10.0	0.0	0.0	0.0	0.0	0.0	0.013	
11.0	0.0	0.0	0.0	0.0	0.0	-0.182	
12.0	0.0	0.0	0.0	0.0	-0.003	-0.271	
13.0	0.0	0.0	0.0	0.0	0.003	-0.057	
14.0	0.0	0.0	0.0	0.0	0.013	0.003	
15.0	0.0	0.0	0.0	0.0	0.019	-0.118	
0.0	0.0	0.0	0.0	0.0	0.003	-0.172	
1.0	0.0	0.0	0.0	0.0	0.003	-0.141	
2.0	0.0	0.0	0.0	0.0	-0.01	-0.086	
3.0	0.0	0.0	0.0	0.0	-0.016	-0.211	
4.0	0.0	0.0	0.0	0.0	-0.006	-0.383	
5.0	0.0	0.0	0.0	0.0	-0.01	-0.291	
6.0	0.0	0.0	0.0	0.0	-0.003	-0.23	
7.0	0.0	0.0	0.0	0.0	0.0	-0.428	
8.0	0.0	0.0	0.0	0.0	-0.019	-0.383	
9.0	0.0	0.0	0.0	0.0	-0.051	1.303	
10.0	0.0	0.0	0.0	0.0	-0.057	1.169	
11.0	0.0	0.0	0.0	0.0	-0.013	-0.297	
12.0	0.0	0.0	0.0	0.0	-0.013	0.639	
13.0	0.0	0.0	0.0	0.0	-0.006	1.038	
14.0	0.0	0.0	0.0	0.0	0.029	0.431	
15.0	0.0	0.0	0.0	0.0	0.073	-0.022	
0.0	0.0	0.0	0.0	0.0	0.086	0.115	
1.0	0.0	0.0	0.0	0.0	0.086	-0.581	
2.0	0.0	0.0	0.0	0.0	0.048	-0.565	
3.0	0.0	0.0	0.0	0.0	0.022	-0.166	
4.0	0.0	0.0	0.0	0.0	0.019	-0.195	
5.0	0.0	0.0	0.0	0.0	-0.003	0.172	
6.0	0.0	0.0	0.0	0.0	-0.013	0.367	
7.0	0.0	0.0	0.0	0.0	0.01	0.064	
8.0	0.0	0.0	0.0	0.0	-0.003	-0.128	
9.0	0.0	0.0	0.0	0.0	-0.006	-0.297	
10.0	0.0	0.0	0.0	0.0	-0.016	-0.31	
11.0	0.0	0.0	0.0	0.0	-0.026	-0.147	
12.0	0.0	0.0	0.0	0.0	-0.029	-0.083	
13.0	0.0	0.0	0.0	0.0	-0.032	-0.115	
14.0	0.0	0.0	0.0	0.0	-0.029	-0.141	
15.0	0.0	0.0	0.0	0.0	-0.038	-0.029	
0.0	0.0	0.0	0.0	0.0	-0.035	0.045	
1.0	0.0	0.0	0.0	0.0	-0.022	0.045	
2.0	0.0	0.0	0.0	0.0	-0.022	0.029	
3.0	0.0	0.0	0.0	0.0	-0.013	-0.032	
4.0	0.0	0.0	0.0	0.0	-0.032	-0.268	
5.0	0.0	0.0	0.0	0.0	-0.035	-0.425	
6.0	0.0	0.0	0.0	0.0	-0.045	-0.489	
7.0	0.0	0.0	0.0	0.0	-0.042	-0.482	
8.0	0.0	0.0	0.0	0.0	-0.029	-0.524	
9.0	0.0	0.0	0.0	0.0	0.0	-0.265	
10.0	0.0	0.0	0.0	0.0	0.032	0.073	
11.0	0.0	0.0	0.0	0.0	0.048	1.29	
12.0	0.0	0.0	0.0	0.0	0.061	1.629	
13.0	0.0	0.0	0.0	0.0	0.054	0.54	
14.0	0.0	0.0	0.0	0.0	0.051	-0.121	
15.0	0.0	0.0	0.0	0.0	0.035	-0.271	
0.0	0.0	0.0	0.0	0.0	0.026	-0.006	
1.0	0.0	0.0	0.0	0.0	0.016	-0.029	
2.0	0.0	0.0	0.0	0.0	0.006	-0.086	
3.0	0.0	0.0	0.0	0.0	-0.003	-0.128	
4.0	0.0	0.0	0.0	0.0	-0.01	-0.157	
5.0	0.0	0.0	0.0	0.0	-0.016	-0.166	
6.0	0.0	0.0	0.0	0.0	-0.016	-0.147	
7.0	0.0	0.0	0.0	0.0	-0.019	-0.096	
8.0	0.0	0.0	0.0	0.0	-0.032	-0.217	
9.0	0.0	0.0	0.0	0.0	-0.038	-0.569	
10.0	0.0	0.0	0.0	0.0	-0.032	-0.569	
11.0	0.0	0.0	0.0	0.0	-0.026	-0.597	
12.0	0.0	0.0	0.0	0.0	-0.029	-0.457	
13.0	0.0	0.0	0.0	0.0	-0.035	-0.38	
14.0	0.0	0.0	0.0	0.0	-0.061	0.623	
15.0	0.0	0.0	0.0	0.0	-0.083	1.629	
0.0	0.0	0.0	0.0	0.0	-0.006	1.495	
1.0	0.0	0.0	0.0	0.0	0.067	0.412	
2.0	0.0	0.0	0.0	0.0	0.121	-0.23	
3.0	0.0	0.0	0.0	0.0	0.125	-0.543	
4.0	0.0	0.0	0.0	0.0	0.102	-0.482	
5.0	0.0	0.0	0.0	0.0	0.048	-0.163	
6.0	0.0	0.0	0.0	0.0	0.022	-0.121	
7.0	0.0	0.0	0.0	0.0	0.003	-0.137	
8.0	0.0	0.0	0.0	0.0	-0.016	-0.118	
9.0	0.0	0.0	0.0	0.0	-0.029	-0.093	
10.0	0.0	0.0	0.0	0.0	-0.016	-0.042	
11.0	0.0	0.0	0.0	0.0	-0.029	-0.035	
12.0	0.0	0.0	0.0	0.0	-0.022	-0.064	
13.0	0.0	0.0	0.0	0.0	-0.022	0.013	
14.0	0.0	0.0	0.0	0.0	-0.026	-0.077	
15.0	0.0	0.0	0.0	0.0	-0.029	-0.217	
0.0	0.0	0.0	0.0	0.0	-0.038	-0.192	
1.0	0.0	0.0	0.0	0.0	-0.048	-0.297	
2.0	0.0	0.0	0.0	0.0	-0.051	-0.335	
3.0	0.0	0.0	0.0	0.0	-0.054	-0.54	
4.0	0.0	0.0	0.0	0.0	-0.083	-0.054	
5.0	0.0	0.0	0.0	0.0	-0.102	0.399	
6.0	0.0	0.0	0.0	0.0	-0.083	-0.565	
7.0	0.0	0.0	0.0	0.0	-0.029	0.157	
8.0	0.0	0.0	0.0	0.0	0.054	1.348	
9.0	0.0	0.0	0.0	0.0	0.121	0.24	
10.0	0.0	0.0	0.0	0.0	0.134	0.498	
11.0	0.0	0.0	0.0	0.0	0.147	0.454	
12.0	0.0	0.0	0.0	0.0	0.157	0.029	
13.0	0.0	0.0	0.0	0.0	0.112	-0.109	
14.0	0.0	0.0	0.0	0.0	0.07	-0.157	
