# OpenSignals Text File Format. Version 1
# {"88:6B:0F:F0:D6:9F": {"position": 0, "device": "bitalino_rev", "device name": "88:6B:0F:F0:D6:9F", "device connection": "BTH88:6B:0F:F0:D6:9F", "sampling rate": 1000, "resolution": [4, 1, 1, 1, 1, 10, 10], "firmware version": 1282, "comments": "", "keywords": "", "mode": 0, "sync interval": 2, "date": "2025-10-22", "time": "13:56:11.534", "channels": [3, 4], "sensor": ["EMGBITREV", "EMGBITREV"], "label": ["A3", "A4"], "column": ["nSeq", "I1", "I2", "O1", "O2", "A3", "A4"], "special": [{}, {}], "digital IO": [0, 0, 1, 1], "convertedValues": 0}}
# EndOfHeader
0	0	0	0	0	512	534	
1	0	0	0	0	514	498	
2	0	0	0	0	512	566	
3	0	0	0	0	513	527	
4	0	0	0	0	514	465	
5	0	0	0	0	515	454	
6	0	0	0	0	509	495	
7	0	0	0	0	512	517	
8	0	0	0	0	510	543	
9	0	0	0	0	512	513	
10	0	0	0	0	512	473	
11	0	0	0	0	515	492	
12	0	0	0	0	516	511	
13	0	0	0	0	512	534	
14	0	0	0	0	509	532	
15	0	0	0	0	513	504	
0	0	0	0	0	511	499	
1	0	0	0	0	512	504	
2	0	0	0	0	513	507	
3	0	0	0	0	514	522	
4	0	0	0	0	510	518	
5	0	0	0	0	512	515	
6	0	0	0	0	515	521	
7	0	0	0	0	514	510	
8	0	0	0	0	510	453	
9	0	0	0	0	509	502	
10	0	0	0	0	508	455	
11	0	0	0	0	510	475	
12	0	0	0	0	509	524	
13	0	0	0	0	508	501	
14	0	0	0	0	511	530	
15	0	0	0	0	510	473	
0	0	0	0	0	508	469	
1	0	0	0	0	510	510	
2	0	0	0	0	508	598	
3	0	0	0	0	511	526	
4	0	0	0	0	515	567	
5	0	0	0	0	522	473	
6	0	0	0	0	517	483	
7	0	0	0	0	517	496	
8	0	0	0	0	519	514	
9	0	0	0	0	519	513	
10	0	0	0	0	515	516	
11	0	0	0	0	512	493	
12	0	0	0	0	513	479	
13	0	0	0	0	512	537	
14	0	0	0	0	511	535	
15	0	0	0	0	509	505	
0	0	0	0	0	510	500	
1	0	0	0	0	508	505	
2	0	0	0	0	511	510	
3	0	0	0	0	507	516	
4	0	0	0	0	507	517	
5	0	0	0	0	504	502	
6	0	0	0	0	509	488	
7	0	0	0	0	507	454	
8	0	0	0	0	510	472	
9	0	0	0	0	512	472	
10	0	0	0	0	510	505	
11	0	0	0	0	514	495	
12	0	0	0	0	518	489	
13	0	0	0	0	514	573	
14	0	0	0	0	513	616	
15	0	0	0	0	515	532	
0	0	0	0	0	516	481	
1	0	0	0	0	509	573	
2	0	0	0	0	512	491	
3	0	0	0	0	512	564	
4	0	0	0	0	511	544	
5	0	0	0	0	515	515	
6	0	0	0	0	515	440	
7	0	0	0	0	513	456	
8	0	0	0	0	513	502	
9	0	0	0	0	511	510	
10	0	0	0	0	504	443	
11	0	0	0	0	508	498	
12	0	0	0	0	511	496	
13	0	0	0	0	511	442	
14	0	0	0	0	508	597	
15	0	0	0	0	508	549	
0	0	0	0	0	515	489	
1	0	0	0	0	513	502	
2	0	0	0	0	517	510	
3	0	0	0	0	514	507	
4	0	0	0	0	512	498	
5	0	0	0	0	515	500	
6	0	0	0	0	510	496	
7	0	0	0	0	506	524	
8	0	0	0	0	507	562	
9	0	0	0	0	511	536	
10	0	0	0	0	511	507	
11	0	0	0	0	517	458	
12	0	0	0	0	514	496	
13	0	0	0	0	516	452	
14	0	0	0	0	517	531	
15	0	0	0	0	512	500	
0	0	0	0	0	510	492	
1	0	0	0	0	504	510	
2	0	0	0	0	507	495	
3	0	0	0	0	512	501	
4	0	0	0	0	514	489	
5	0	0	0	0	515	483	
6	0	0	0	0	514	532	
7	0	0	0	0	514	534	
8	0	0	0	0	510	522	
9	0	0	0	0	507	498	
10	0	0	0	0	508	483	
11	0	0	0	0	508	477	
12	0	0	0	0	512	507	
13	0	0	0	0	509	542	
14	0	0	0	0	502	579	
15	0	0	0	0	508	512	
0	0	0	0	0	511	495	
1	0	0	0	0	516	504	
2	0	0	0	0	518	509	
3	0	0	0	0	522	504	
4	0	0	0	0	524	504	
5	0	0	0	0	524	482	
6	0	0	0	0	520	483	
7	0	0	0	0	517	489	
8	0	0	0	0	513	488	
9	0	0	0	0	507	484	
10	0	0	0	0	502	555	
11	0	0	0	0	503	564	
12	0	0	0	0	508	518	
13	0	0	0	0	510	564	
14	0	0	0	0	510	568	
15	0	0	0	0	509	500	
0	0	0	0	0	504	463	
1	0	0	0	0	507	478	
2	0	0	0	0	508	449	
3	0	0	0	0	508	447	
4	0	0	0	0	512	519	
5	0	0	0	0	512	525	
6	0	0	0	0	515	484	
7	0	0	0	0	512	576	
8	0	0	0	0	515	530	
9	0	0	0	0	518	481	
10	0	0	0	0	515	452	
11	0	0	0	0	517	459	
12	0	0	0	0	509	522	
13	0	0	0	0	503	600	
14	0	0	0	0	504	584	
15	0	0	0	0	510	550	
0	0	0	0	0	511	448	
1	0	0	0	0	511	459	
2	0	0	0	0	511	490	
3	0	0	0	0	511	476	
4	0	0	0	0	511	487	
5	0	0	0	0	513	472	
6	0	0	0	0	513	454	
7	0	0	0	0	513	571	
8	0	0	0	0	511	542	
9	0	0	0	0	515	508	
10	0	0	0	0	514	544	
11	0	0	0	0	511	535	
12	0	0	0	0	511	494	
13	0	0	0	0	518	457	
14	0	0	0	0	512	536	
15	0	0	0	0	514	548	
0	0	0	0	0	515	570	
1	0	0	0	0	513	539	
2	0	0	0	0	513	480	
3	0	0	0	0	511	478	
4	0	0	0	0	507	469	
5	0	0	0	0	513	493	
6	0	0	0	0	511	509	
7	0	0	0	0	511	508	
8	0	0	0	0	512	502	
9	0	0	0	0	509	492	
10	0	0	0	0	509	479	
11	0	0	0	0	508	504	
12	0	0	0	0	508	513	
13	0	0	0	0	515	517	
14	0	0	0	0	512	497	
15	0	0	0	0	512	461	
0	0	0	0	0	514	494	
1	0	0	0	0	516	523	
2	0	0	0	0	512	524	
3	0	0	0	0	506	524	
4	0	0	0	0	504	509	
5	0	0	0	0	508	493	
6	0	0	0	0	513	480	
7	0	0	0	0	515	482	
8	0	0	0	0	515	507	
9	0	0	0	0	515	569	
10	0	0	0	0	515	557	
11	0	0	0	0	518	519	
12	0	0	0	0	515	498	
13	0	0	0	0	512	484	
14	0	0	0	0	505	493	
15	0	0	0	0	504	547	
0	0	0	0	0	511	507	
1	0	0	0	0	512	532	
2	0	0	0	0	516	509	
3	0	0	0	0	515	509	
4	0	0	0	0	518	506	
5	0	0	0	0	512	480	
6	0	0	0	0	510	483	
7	0	0	0	0	509	483	
8	0	0	0	0	512	477	
9	0	0	0	0	511	542	
10	0	0	0	0	509	567	
11	0	0	0	0	507	462	
12	0	0	0	0	507	524	
13	0	0	0	0	508	534	
14	0	0	0	0	511	488	
15	0	0	0	0	507	452	
0	0	0	0	0	508	502	
1	0	0	0	0	507	638	
2	0	0	0	0	512	489	
3	0	0	0	0	518	533	
4	0	0	0	0	514	541	
5	0	0	0	0	511	486	
6	0	0	0	0	509	412	
7	0	0	0	0	511	470	
8	0	0	0	0	509	484	
9	0	0	0	0	510	490	
10	0	0	0	0	511	464	
11	0	0	0	0	510	497	
12	0	0	0	0	516	505	
13	0	0	0	0	521	525	
14	0	0	0	0	525	607	
15	0	0	0	0	524	685	
0	0	0	0	0	525	519	
1	0	0	0	0	519	471	
2	0	0	0	0	513	447	
3	0	0	0	0	507	392	
4	0	0	0	0	503	473	
5	0	0	0	0	502	536	
6	0	0	0	0	504	530	
7	0	0	0	0	505	499	
8	0	0	0	0	506	501	
9	0	0	0	0	511	484	
10	0	0	0	0	511	488	
11	0	0	0	0	511	552	
12	0	0	0	0	510	554	
13	0	0	0	0	511	522	
14	0	0	0	0	516	516	
15	0	0	0	0	514	537	
0	0	0	0	0	513	513	
1	0	0	0	0	512	460	
2	0	0	0	0	514	445	
3	0	0	0	0	513	475	
4	0	0	0	0	516	478	
5	0	0	0	0	513	483	
6	0	0	0	0	509	562	
7	0	0	0	0	506	570	
8	0	0	0	0	508	506	
9	0	0	0	0	510	501	
10	0	0	0	0	513	547	
11	0	0	0	0	512	525	
12	0	0	0	0	514	509	
13	0	0	0	0	513	505	
14	0	0	0	0	513	505	
15	0	0	0	0	514	510	
0	0	0	0	0	512	503	
1	0	0	0	0	511	479	
2	0	0	0	0	511	474	
3	0	0	0	0	513	499	
4	0	0	0	0	516	508	
5	0	0	0	0	512	485	
6	0	0	0	0	508	512	
7	0	0	0	0	505	516	
8	0	0	0	0	504	477	
9	0	0	0	0	508	541	
10	0	0	0	0	512	506	
11	0	0	0	0	515	495	
12	0	0	0	0	512	496	
13	0	0	0	0	510	503	
14	0	0	0	0	519	489	
15	0	0	0	0	514	534	
0	0	0	0	0	514	528	
1	0	0	0	0	512	565	
2	0	0	0	0	514	527	
3	0	0	0	0	513	494	
4	0	0	0	0	512	550	
5	0	0	0	0	513	524	
6	0	0	0	0	513	467	
7	0	0	0	0	511	443	
8	0	0	0	0	507	415	
9	0	0	0	0	504	506	
10	0	0	0	0	507	536	
11	0	0	0	0	502	581	
12	0	0	0	0	511	566	
13	0	0	0	0	520	505	
14	0	0	0	0	516	486	
15	0	0	0	0	512	451	
0	0	0	0	0	509	483	
1	0	0	0	0	511	511	
2	0	0	0	0	514	511	
3	0	0	0	0	515	468	
4	0	0	0	0	515	492	
5	0	0	0	0	513	643	
6	0	0	0	0	519	529	
7	0	0	0	0	516	520	
8	0	0	0	0	512	512	
9	0	0	0	0	504	497	
10	0	0	0	0	499	541	
11	0	0	0	0	498	455	
12	0	0	0	0	502	444	
13	0	0	0	0	513	462	
14	0	0	0	0	520	492	
15	0	0	0	0	520	511	
0	0	0	0	0	518	520	
1	0	0	0	0	520	553	
2	0	0	0	0	524	506	
3	0	0	0	0	516	520	
4	0	0	0	0	509	505	
5	0	0	0	0	501	506	
6	0	0	0	0	506	502	
7	0	0	0	0	508	505	
8	0	0	0	0	505	496	
9	0	0	0	0	505	508	
10	0	0	0	0	507	507	
11	0	0	0	0	510	474	
12	0	0	0	0	514	535	
13	0	0	0	0	511	536	
14	0	0	0	0	510	501	
15	0	0	0	0	515	511	
0	0	0	0	0	517	536	
1	0	0	0	0	515	486	
2	0	0	0	0	515	482	
3	0	0	0	0	514	506	
4	0	0	0	0	512	518	
5	0	0	0	0	513	517	
6	0	0	0	0	512	520	
7	0	0	0	0	513	513	
8	0	0	0	0	514	505	
9	0	0	0	0	515	498	
10	0	0	0	0	510	485	
11	0	0	0	0	512	486	
12	0	0	0	0	508	567	
13	0	0	0	0	510	556	
14	0	0	0	0	505	483	
15	0	0	0	0	506	448	
0	0	0	0	0	507	418	
1	0	0	0	0	513	435	
2	0	0	0	0	515	482	
3	0	0	0	0	518	691	
4	0	0	0	0	515	652	
5	0	0	0	0	518	479	
6	0	0	0	0	516	485	
7	0	0	0	0	511	455	
8	0	0	0	0	508	471	
9	0	0	0	0	510	492	
10	0	0	0	0	511	504	
11	0	0	0	0	504	626	
12	0	0	0	0	507	506	
13	0	0	0	0	517	432	
14	0	0	0	0	513	468	
15	0	0	0	0	511	454	
0	0	0	0	0	513	467	
1	0	0	0	0	510	516	
2	0	0	0	0	510	558	
3	0	0	0	0	513	581	
4	0	0	0	0	516	589	
5	0	0	0	0	515	547	
6	0	0	0	0	510	425	
7	0	0	0	0	508	425	
8	0	0	0	0	507	455	
9	0	0	0	0	510	476	
10	0	0	0	0	515	480	
11	0	0	0	0	514	578	
12	0	0	0	0	513	590	
13	0	0	0	0	516	528	
14	0	0	0	0	513	536	
15	0	0	0	0	511	506	
0	0	0	0	0	508	492	
1	0	0	0	0	510	511	
2	0	0	0	0	514	509	
3	0	0	0	0	512	508	
4	0	0	0	0	511	508	
5	0	0	0	0	510	503	
6	0	0	0	0	512	501	
7	0	0	0	0	511	471	
8	0	0	0	0	511	515	
9	0	0	0	0	515	513	
10	0	0	0	0	512	527	
11	0	0	0	0	511	512	
12	0	0	0	0	510	486	
13	0	0	0	0	514	485	
14	0	0	0	0	512	504	
15	0	0	0	0	510	510	
0	0	0	0	0	513	509	
1	0	0	0	0	516	499	
2	0	0	0	0	516	497	
3	0	0	0	0	512	488	
4	0	0	0	0	508	470	
5	0	0	0	0	506	539	
6	0	0	0	0	504	544	
7	0	0	0	0	507	527	
8	0	0	0	0	508	514	
9	0	0	0	0	511	496	
10	0	0	0	0	510	505	
11	0	0	0	0	513	527	
12	0	0	0	0	514	516	
13	0	0	0	0	512	479	
14	0	0	0	0	507	463	
15	0	0	0	0	514	511	
0	0	0	0	0	516	525	
1	0	0	0	0	519	541	
2	0	0	0	0	519	465	
3	0	0	0	0	516	475	
4	0	0	0	0	516	486	
5	0	0	0	0	517	492	
6	0	0	0	0	508	548	
7	0	0	0	0	504	613	
8	0	0	0	0	510	534	
9	0	0	0	0	517	538	
10	0	0	0	0	512	545	
11	0	0	0	0	508	471	
12	0	0	0	0	507	485	
13	0	0	0	0	504	474	
14	0	0	0	0	504	424	
15	0	0	0	0	504	454	
0	0	0	0	0	505	491	
1	0	0	0	0	501	589	
2	0	0	0	0	504	565	
3	0	0	0	0	519	464	
4	0	0	0	0	524	392	
5	0	0	0	0	525	493	
6	0	0	0	0	531	490	
7	0	0	0	0	536	468	
8	0	0	0	0	530	585	
9	0	0	0	0	520	684	
10	0	0	0	0	511	607	
11	0	0	0	0	507	457	
12	0	0	0	0	502	464	
13	0	0	0	0	503	514	
14	0	0	0	0	503	530	
15	0	0	0	0	504	482	
0	0	0	0	0	508	472	
1	0	0	0	0	508	491	
2	0	0	0	0	506	505	
3	0	0	0	0	508	516	
4	0	0	0	0	507	521	
5	0	0	0	0	512	498	
6	0	0	0	0	511	449	
7	0	0	0	0	513	468	
8	0	0	0	0	513	585	
9	0	0	0	0	512	556	
10	0	0	0	0	514	498	
11	0	0	0	0	513	481	
12	0	0	0	0	517	500	
13	0	0	0	0	516	501	
14	0	0	0	0	514	536	
15	0	0	0	0	511	496	
0	0	0	0	0	512	484	
1	0	0	0	0	512	492	
2	0	0	0	0	510	499	
3	0	0	0	0	512	527	
4	0	0	0	0	509	531	
5	0	0	0	0	506	516	
6	0	0	0	0	503	495	
7	0	0	0	0	502	484	
8	0	0	0	0	506	501	
9	0	0	0	0	513	515	
10	0	0	0	0	511	515	
11	0	0	0	0	516	513	
12	0	0	0	0	517	508	
13	0	0	0	0	515	512	
14	0	0	0	0	514	501	
15	0	0	0	0	511	495	
0	0	0	0	0	514	519	
1	0	0	0	0	517	506	
2	0	0	0	0	512	449	
3	0	0	0	0	516	580	
4	0	0	0	0	516	554	
5	0	0	0	0	513	419	
6	0	0	0	0	510	480	
7	0	0	0	0	506	512	
8	0	0	0	0	505	511	
9	0	0	0	0	505	501	
10	0	0	0	0	505	488	
11	0	0	0	0	507	499	
12	0	0	0	0	512	506	
13	0	0	0	0	513	595	
14	0	0	0	0	512	522	
15	0	0	0	0	516	433	
0	0	0	0	0	518	502	
1	0	0	0	0	515	505	
2	0	0	0	0	512	400	
3	0	0	0	0	512	623	
4	0	0	0	0	513	613	
5	0	0	0	0	512	540	
6	0	0	0	0	510	532	
7	0	0	0	0	511	512	
8	0	0	0	0	509	453	
9	0	0	0	0	505	433	
10	0	0	0	0	508	452	
11	0	0	0	0	512	509	
12	0	0	0	0	514	518	
13	0	0	0	0	513	583	
14	0	0	0	0	515	537	
15	0	0	0	0	507	518	
0	0	0	0	0	508	475	
1	0	0	0	0	513	420	
2	0	0	0	0	513	476	
3	0	0	0	0	512	585	
4	0	0	0	0	516	563	
5	0	0	0	0	518	543	
6	0	0	0	0	513	530	
7	0	0	0	0	509	487	
8	0	0	0	0	512	472	
9	0	0	0	0	512	532	
10	0	0	0	0	513	497	
11	0	0	0	0	515	465	
12	0	0	0	0	511	463	
13	0	0	0	0	505	606	
14	0	0	0	0	501	555	
15	0	0	0	0	501	478	
0	0	0	0	0	507	468	
1	0	0	0	0	516	517	
2	0	0	0	0	522	551	
3	0	0	0	0	523	520	
4	0	0	0	0	526	496	
5	0	0	0	0	527	432	
6	0	0	0	0	519	465	
7	0	0	0	0	515	531	
8	0	0	0	0	510	529	
9	0	0	0	0	503	480	
10	0	0	0	0	502	504	
11	0	0	0	0	506	448	
12	0	0	0	0	511	480	
13	0	0	0	0	509	487	
14	0	0	0	0	509	482	
15	0	0	0	0	510	495	
0	0	0	0	0	512	507	
1	0	0	0	0	509	579	
2	0	0	0	0	505	497	
3	0	0	0	0	505	525	
4	0	0	0	0	502	582	
5	0	0	0	0	506	526	
6	0	0	0	0	508	487	
7	0	0	0	0	512	519	
8	0	0	0	0	516	552	
9	0	0	0	0	522	525	
10	0	0	0	0	521	485	
11	0	0	0	0	522	455	
12	0	0	0	0	523	461	
13	0	0	0	0	521	507	
14	0	0	0	0	523	561	
15	0	0	0	0	519	544	
0	0	0	0	0	507	480	
1	0	0	0	0	501	472	
2	0	0	0	0	497	493	
3	0	0	0	0	497	480	
4	0	0	0	0	504	483	
5	0	0	0	0	505	550	
6	0	0	0	0	510	494	
7	0	0	0	0	512	488	
8	0	0	0	0	510	504	
9	0	0	0	0	512	517	
10	0	0	0	0	511	629	
11	0	0	0	0	508	542	
12	0	0	0	0	510	483	
13	0	0	0	0	515	475	
14	0	0	0	0	515	501	
15	0	0	0	0	512	511	
0	0	0	0	0	514	498	
1	0	0	0	0	518	481	
2	0	0	0	0	516	472	
3	0	0	0	0	516	506	
4	0	0	0	0	517	526	
5	0	0	0	0	514	518	
6	0	0	0	0	516	494	
7	0	0	0	0	512	476	
8	0	0	0	0	509	476	
9	0	0	0	0	506	484	
10	0	0	0	0	507	450	
11	0	0	0	0	506	610	
12	0	0	0	0	508	640	
13	0	0	0	0	512	556	
14	0	0	0	0	512	537	
15	0	0	0	0	516	506	
0	0	0	0	0	516	492	
1	0	0	0	0	511	486	
2	0	0	0	0	511	479	
3	0	0	0	0	507	449	
4	0	0	0	0	505	447	
5	0	0	0	0	508	423	
6	0	0	0	0	515	464	
7	0	0	0	0	519	525	
8	0	0	0	0	518	563	
9	0	0	0	0	515	523	
10	0	0	0	0	512	510	
11	0	0	0	0	513	553	
12	0	0	0	0	513	503	
13	0	0	0	0	516	505	
14	0	0	0	0	514	515	
15	0	0	0	0	513	509	
0	0	0	0	0	510	552	
1	0	0	0	0	508	494	
2	0	0	0	0	514	437	
3	0	0	0	0	513	411	
4	0	0	0	0	511	484	
5	0	0	0	0	509	558	
6	0	0	0	0	506	557	
7	0	0	0	0	505	545	
8	0	0	0	0	505	590	
9	0	0	0	0	509	570	
10	0	0	0	0	508	492	
11	0	0	0	0	510	479	
12	0	0	0	0	514	502	
13	0	0	0	0	513	472	
14	0	0	0	0	514	472	
15	0	0	0	0	515	486	
0	0	0	0	0	511	487	
1	0	0	0	0	513	552	
2	0	0	0	0	517	548	
3	0	0	0	0	515	451	
4	0	0	0	0	515	496	
5	0	0	0	0	513	489	
6	0	0	0	0	507	512	
7	0	0	0	0	508	538	
8	0	0	0	0	511	524	
9	0	0	0	0	514	515	
10	0	0	0	0	513	499	
11	0	0	0	0	515	506	
12	0	0	0	0	511	501	
13	0	0	0	0	506	494	
14	0	0	0	0	504	498	
15	0	0	0	0	504	506	
0	0	0	0	0	510	497	
1	0	0	0	0	513	524	
2	0	0	0	0	513	572	
3	0	0	0	0	520	509	
4	0	0	0	0	519	495	
5	0	0	0	0	524	496	
6	0	0	0	0	520	497	
7	0	0	0	0	517	495	
8	0	0	0	0	508	493	
9	0	0	0	0	503	484	
10	0	0	0	0	503	499	
11	0	0	0	0	502	502	
12	0	0	0	0	508	493	
13	0	0	0	0	512	509	
14	0	0	0	0	507	526	
15	0	0	0	0	506	519	
0	0	0	0	0	502	534	
1	0	0	0	0	502	487	
2	0	0	0	0	503	447	
3	0	0	0	0	511	484	
4	0	0	0	0	520	602	
5	0	0	0	0	526	572	
6	0	0	0	0	529	510	
7	0	0	0	0	525	503	
8	0	0	0	0	521	484	
9	0	0	0	0	524	469	
10	0	0	0	0	518	495	
11	0	0	0	0	515	478	
12	0	0	0	0	509	553	
13	0	0	0	0	505	550	
14	0	0	0	0	507	498	
15	0	0	0	0	507	499	
0	0	0	0	0	508	484	
1	0	0	0	0	509	386	
2	0	0	0	0	502	515	
3	0	0	0	0	502	606	
4	0	0	0	0	505	536	
5	0	0	0	0	510	492	
6	0	0	0	0	508	516	
7	0	0	0	0	512	497	
8	0	0	0	0	511	497	
9	0	0	0	0	516	478	
10	0	0	0	0	515	465	
11	0	0	0	0	516	543	
12	0	0	0	0	518	591	
13	0	0	0	0	516	600	
14	0	0	0	0	511	504	
15	0	0	0	0	512	434	
0	0	0	0	0	512	441	
1	0	0	0	0	511	459	
2	0	0	0	0	515	520	
3	0	0	0	0	513	540	
4	0	0	0	0	512	513	
5	0	0	0	0	511	505	
6	0	0	0	0	508	503	
7	0	0	0	0	515	500	
8	0	0	0	0	518	500	
9	0	0	0	0	517	501	
10	0	0	0	0	515	506	
11	0	0	0	0	511	505	
12	0	0	0	0	508	524	
13	0	0	0	0	506	532	
14	0	0	0	0	507	509	
15	0	0	0	0	510	505	
0	0	0	0	0	508	495	
1	0	0	0	0	510	502	
2	0	0	0	0	509	504	
3	0	0	0	0	509	506	
4	0	0	0	0	509	508	
5	0	0	0	0	508	508	
6	0	0	0	0	511	504	
7	0	0	0	0	508	505	
8	0	0	0	0	508	503	
9	0	0	0	0	510	504	
10	0	0	0	0	515	501	
11	0	0	0	0	514	516	
12	0	0	0	0	517	503	
13	0	0	0	0	518	492	
14	0	0	0	0	519	507	
15	0	0	0	0	517	543	
0	0	0	0	0	513	549	
1	0	0	0	0	506	521	
2	0	0	0	0	502	491	
3	0	0	0	0	503	488	
4	0	0	0	0	504	474	
5	0	0	0	0	502	512	
6	0	0	0	0	506	522	
7	0	0	0	0	508	527	
8	0	0	0	0	518	534	
9	0	0	0	0	524	466	
10	0	0	0	0	527	433	
11	0	0	0	0	531	440	
12	0	0	0	0	531	497	
13	0	0	0	0	527	485	
14	0	0	0	0	518	527	
15	0	0	0	0	510	570	
0	0	0	0	0	504	611	
1	0	0	0	0	506	576	
2	0	0	0	0	503	550	
3	0	0	0	0	503	493	
4	0	0	0	0	502	464	
5	0	0	0	0	508	472	
6	0	0	0	0	506	479	
7	0	0	0	0	513	474	
8	0	0	0	0	512	495	
9	0	0	0	0	513	525	
10	0	0	0	0	516	511	
11	0	0	0	0	519	496	
12	0	0	0	0	508	604	
13	0	0	0	0	508	535	
14	0	0	0	0	507	444	
15	0	0	0	0	505	455	
0	0	0	0	0	506	555	
1	0	0	0	0	508	511	
2	0	0	0	0	510	503	
3	0	0	0	0	511	517	
4	0	0	0	0	511	514	
5	0	0	0	0	512	476	
6	0	0	0	0	513	471	
7	0	0	0	0	514	511	
8	0	0	0	0	515	483	
9	0	0	0	0	513	444	
10	0	0	0	0	516	519	
11	0	0	0	0	511	528	
12	0	0	0	0	509	464	
13	0	0	0	0	516	500	
14	0	0	0	0	514	559	
15	0	0	0	0	514	575	
0	0	0	0	0	516	525	
1	0	0	0	0	508	506	
2	0	0	0	0	507	535	
3	0	0	0	0	511	508	
4	0	0	0	0	511	480	
5	0	0	0	0	508	494	
6	0	0	0	0	509	508	
7	0	0	0	0	504	507	
8	0	0	0	0	503	498	
9	0	0	0	0	504	511	
10	0	0	0	0	511	524	
11	0	0	0	0	516	525	
12	0	0	0	0	519	506	
13	0	0	0	0	523	515	
14	0	0	0	0	519	485	
15	0	0	0	0	524	499	
0	0	0	0	0	522	455	
1	0	0	0	0	520	472	
2	0	0	0	0	519	507	
3	0	0	0	0	507	504	
4	0	0	0	0	503	542	
5	0	0	0	0	502	515	
6	0	0	0	0	505	512	
7	0	0	0	0	510	502	
8	0	0	0	0	508	501	
9	0	0	0	0	513	511	
10	0	0	0	0	510	530	
11	0	0	0	0	515	550	
12	0	0	0	0	511	531	
13	0	0	0	0	512	508	
14	0	0	0	0	512	485	
15	0	0	0	0	509	519	
0	0	0	0	0	511	471	
1	0	0	0	0	513	476	
2	0	0	0	0	514	480	
3	0	0	0	0	515	482	
4	0	0	0	0	515	523	
5	0	0	0	0	510	537	
6	0	0	0	0	511	532	
7	0	0	0	0	513	552	
8	0	0	0	0	511	509	
9	0	0	0	0	510	505	
10	0	0	0	0	510	492	
11	0	0	0	0	508	472	
12	0	0	0	0	510	470	
13	0	0	0	0	511	477	
14	0	0	0	0	510	449	
15	0	0	0	0	509	614	
0	0	0	0	0	513	591	
1	0	0	0	0	518	500	
2	0	0	0	0	515	489	
3	0	0	0	0	514	439	
4	0	0	0	0	512	474	
5	0	0	0	0	510	565	
6	0	0	0	0	506	553	
7	0	0	0	0	505	500	
8	0	0	0	0	506	496	
9	0	0	0	0	512	497	
10	0	0	0	0	519	504	
11	0	0	0	0	521	516	
12	0	0	0	0	527	519	
13	0	0	0	0	527	508	
14	0	0	0	0	519	488	
15	0	0	0	0	504	478	
0	0	0	0	0	501	523	
1	0	0	0	0	498	523	
2	0	0	0	0	499	493	
3	0	0	0	0	502	547	
4	0	0	0	0	504	504	
5	0	0	0	0	508	463	
6	0	0	0	0	510	468	
7	0	0	0	0	509	434	
8	0	0	0	0	513	511	
9	0	0	0	0	516	577	
10	0	0	0	0	517	512	
11	0	0	0	0	514	492	
12	0	0	0	0	515	492	
13	0	0	0	0	512	583	
14	0	0	0	0	513	541	
15	0	0	0	0	511	486	
0	0	0	0	0	512	519	
1	0	0	0	0	514	472	
2	0	0	0	0	511	463	
3	0	0	0	0	509	603	
4	0	0	0	0	512	504	
5	0	0	0	0	518	472	
6	0	0	0	0	516	489	
7	0	0	0	0	511	492	
8	0	0	0	0	509	499	
9	0	0	0	0	507	505	
10	0	0	0	0	505	508	
11	0	0	0	0	502	532	
12	0	0	0	0	505	523	
13	0	0	0	0	512	496	
14	0	0	0	0	516	514	
15	0	0	0	0	521	543	
0	0	0	0	0	521	518	
1	0	0	0	0	523	524	
2	0	0	0	0	527	481	
3	0	0	0	0	528	479	
4	0	0	0	0	524	508	
5	0	0	0	0	514	505	
6	0	0	0	0	508	471	
7	0	0	0	0	502	512	
8	0	0	0	0	499	496	
9	0	0	0	0	504	416	
10	0	0	0	0	502	485	
11	0	0	0	0	505	607	
12	0	0	0	0	507	534	
13	0	0	0	0	507	490	
14	0	0	0	0	508	525	
15	0	0	0	0	511	530	
0	0	0	0	0	514	520	
1	0	0	0	0	514	517	
2	0	0	0	0	514	493	
3	0	0	0	0	512	511	
4	0	0	0	0	509	486	
5	0	0	0	0	509	486	
6	0	0	0	0	512	502	
7	0	0	0	0	511	533	
8	0	0	0	0	511	512	
9	0	0	0	0	511	489	
10	0	0	0	0	510	499	
11	0	0	0	0	512	511	
12	0	0	0	0	514	510	
13	0	0	0	0	516	511	
14	0	0	0	0	514	511	
15	0	0	0	0	513	511	
0	0	0	0	0	513	507	
1	0	0	0	0	513	509	
2	0	0	0	0	514	511	
3	0	0	0	0	513	513	
4	0	0	0	0	512	511	
5	0	0	0	0	513	499	
6	0	0	0	0	512	505	
7	0	0	0	0	514	513	
8	0	0	0	0	515	514	
9	0	0	0	0	515	509	
10	0	0	0	0	509	489	
11	0	0	0	0	509	493	
12	0	0	0	0	508	491	
13	0	0	0	0	510	496	
14	0	0	0	0	507	514	
15	0	0	0	0	516	532	
0	0	0	0	0	515	529	
1	0	0	0	0	506	572	
2	0	0	0	0	499	521	
3	0	0	0	0	504	479	
4	0	0	0	0	504	454	
5	0	0	0	0	508	447	
6	0	0	0	0	513	478	
7	0	0	0	0	517	525	
8	0	0	0	0	523	517	
9	0	0	0	0	524	496	
10	0	0	0	0	518	504	
11	0	0	0	0	515	504	
12	0	0	0	0	509	544	
13	0	0	0	0	506	563	
14	0	0	0	0	504	540	
15	0	0	0	0	505	499	
0	0	0	0	0	510	559	
1	0	0	0	0	511	483	
2	0	0	0	0	508	435	
3	0	0	0	0	510	479	
4	0	0	0	0	514	528	
5	0	0	0	0	511	513	
6	0	0	0	0	510	484	
7	0	0	0	0	516	502	
8	0	0	0	0	515	503	
9	0	0	0	0	513	498	
10	0	0	0	0	514	474	
11	0	0	0	0	514	473	
12	0	0	0	0	513	455	
13	0	0	0	0	513	553	
14	0	0	0	0	513	582	
15	0	0	0	0	513	536	
0	0	0	0	0	511	589	
1	0	0	0	0	505	580	
2	0	0	0	0	504	550	
3	0	0	0	0	507	481	
4	0	0	0	0	504	360	
5	0	0	0	0	509	454	
6	0	0	0	0	517	556	
7	0	0	0	0	520	477	
8	0	0	0	0	519	472	
9	0	0	0	0	517	505	
10	0	0	0	0	513	526	
11	0	0	0	0	508	552	
12	0	0	0	0	510	534	
13	0	0	0	0	512	504	
14	0	0	0	0	514	492	
15	0	0	0	0	512	502	
0	0	0	0	0	512	524	
1	0	0	0	0	513	527	
2	0	0	0	0	512	535	
3	0	0	0	0	507	480	
4	0	0	0	0	507	453	
5	0	0	0	0	506	452	
6	0	0	0	0	510	532	
7	0	0	0	0	514	545	
8	0	0	0	0	511	476	
9	0	0	0	0	508	479	
10	0	0	0	0	514	525	
11	0	0	0	0	511	538	
12	0	0	0	0	511	558	
13	0	0	0	0	512	473	
14	0	0	0	0	515	448	
15	0	0	0	0	517	485	
0	0	0	0	0	514	521	
1	0	0	0	0	513	561	
2	0	0	0	0	511	527	
3	0	0	0	0	514	491	
4	0	0	0	0	514	495	
5	0	0	0	0	512	512	
6	0	0	0	0	508	518	
7	0	0	0	0	505	530	
8	0	0	0	0	504	522	
9	0	0	0	0	502	552	
10	0	0	0	0	503	454	
11	0	0	0	0	512	422	
12	0	0	0	0	512	452	
13	0	0	0	0	515	502	
14	0	0	0	0	514	524	
15	0	0	0	0	514	529	
0	0	0	0	0	513	531	
1	0	0	0	0	514	458	
2	0	0	0	0	513	563	
3	0	0	0	0	515	583	
4	0	0	0	0	511	480	
5	0	0	0	0	510	490	
6	0	0	0	0	513	467	
7	0	0	0	0	511	485	
8	0	0	0	0	511	491	
9	0	0	0	0	511	522	
10	0	0	0	0	518	566	
11	0	0	0	0	519	538	
12	0	0	0	0	518	512	
13	0	0	0	0	513	535	
14	0	0	0	0	511	503	
15	0	0	0	0	511	432	
0	0	0	0	0	509	583	
1	0	0	0	0	509	567	
2	0	0	0	0	516	499	
3	0	0	0	0	519	504	
4	0	0	0	0	515	470	
5	0	0	0	0	513	457	
6	0	0	0	0	509	498	
7	0	0	0	0	505	511	
8	0	0	0	0	506	483	
9	0	0	0	0	510	460	
10	0	0	0	0	507	486	
11	0	0	0	0	505	604	
12	0	0	0	0	505	590	
13	0	0	0	0	513	548	
14	0	0	0	0	515	484	
15	0	0	0	0	516	480	
0	0	0	0	0	512	480	
1	0	0	0	0	507	485	
2	0	0	0	0	511	482	
3	0	0	0	0	512	493	
4	0	0	0	0	513	510	
5	0	0	0	0	512	521	
6	0	0	0	0	506	499	
7	0	0	0	0	512	460	
8	0	0	0	0	514	488	
9	0	0	0	0	518	508	
10	0	0	0	0	512	507	
11	0	0	0	0	516	497	
12	0	0	0	0	510	535	
13	0	0	0	0	506	504	
14	0	0	0	0	507	473	
15	0	0	0	0	509	527	
0	0	0	0	0	512	562	
1	0	0	0	0	512	548	
2	0	0	0	0	513	616	
3	0	0	0	0	516	576	
4	0	0	0	0	510	436	
5	0	0	0	0	513	425	
6	0	0	0	0	514	479	
7	0	0	0	0	513	556	
8	0	0	0	0	512	507	
9	0	0	0	0	516	486	
10	0	0	0	0	510	440	
11	0	0	0	0	508	417	
12	0	0	0	0	516	513	
13	0	0	0	0	521	493	
14	0	0	0	0	519	481	
15	0	0	0	0	510	601	
0	0	0	0	0	505	523	
1	0	0	0	0	503	425	
2	0	0	0	0	503	497	
3	0	0	0	0	505	504	
4	0	0	0	0	511	463	
5	0	0	0	0	513	447	
6	0	0	0	0	512	519	
7	0	0	0	0	510	667	
8	0	0	0	0	512	510	
9	0	0	0	0	512	480	
10	0	0	0	0	515	583	
11	0	0	0	0	515	549	
12	0	0	0	0	510	648	
13	0	0	0	0	511	613	
14	0	0	0	0	515	437	
15	0	0	0	0	519	421	
0	0	0	0	0	511	483	
1	0	0	0	0	505	511	
2	0	0	0	0	509	493	
3	0	0	0	0	515	487	
4	0	0	0	0	516	500	
5	0	0	0	0	514	507	
6	0	0	0	0	513	505	
7	0	0	0	0	511	442	
8	0	0	0	0	511	472	
9	0	0	0	0	512	510	
10	0	0	0	0	510	507	
11	0	0	0	0	508	512	
12	0	0	0	0	509	492	
13	0	0	0	0	508	457	
14	0	0	0	0	512	412	
15	0	0	0	0	512	446	
0	0	0	0	0	510	539	
1	0	0	0	0	509	524	
2	0	0	0	0	502	480	
3	0	0	0	0	504	506	
4	0	0	0	0	513	701	
5	0	0	0	0	516	675	
6	0	0	0	0	519	492	
7	0	0	0	0	521	489	
8	0	0	0	0	518	508	
9	0	0	0	0	515	503	
10	0	0	0	0	515	514	
11	0	0	0	0	516	521	
12	0	0	0	0	515	514	
13	0	0	0	0	513	499	
14	0	0	0	0	509	498	
15	0	0	0	0	509	451	
0	0	0	0	0	508	487	
1	0	0	0	0	504	488	
2	0	0	0	0	504	603	
3	0	0	0	0	507	430	
4	0	0	0	0	503	438	
5	0	0	0	0	497	698	
6	0	0	0	0	500	451	
7	0	0	0	0	514	447	
8	0	0	0	0	521	414	
9	0	0	0	0	522	489	
10	0	0	0	0	518	563	
11	0	0	0	0	518	454	
12	0	0	0	0	518	408	
13	0	0	0	0	520	450	
14	0	0	0	0	518	567	
15	0	0	0	0	515	666	
0	0	0	0	0	518	584	
1	0	0	0	0	513	517	
2	0	0	0	0	511	513	
3	0	0	0	0	510	519	
4	0	0	0	0	511	532	
5	0	0	0	0	510	537	
6	0	0	0	0	506	540	
7	0	0	0	0	506	520	
8	0	0	0	0	505	515	
9	0	0	0	0	507	515	
10	0	0	0	0	507	425	
11	0	0	0	0	505	305	
12	0	0	0	0	508	285	
13	0	0	0	0	513	539	
14	0	0	0	0	519	508	
15	0	0	0	0	520	407	
0	0	0	0	0	512	478	
1	0	0	0	0	505	679	
2	0	0	0	0	513	670	
3	0	0	0	0	514	568	
4	0	0	0	0	515	459	
5	0	0	0	0	512	547	
6	0	0	0	0	509	561	
7	0	0	0	0	513	469	
8	0	0	0	0	513	407	
9	0	0	0	0	511	342	
10	0	0	0	0	509	433	
11	0	0	0	0	510	541	
12	0	0	0	0	515	522	
13	0	0	0	0	512	610	
14	0	0	0	0	512	557	
15	0	0	0	0	514	660	
0	0	0	0	0	507	697	
1	0	0	0	0	507	494	
2	0	0	0	0	504	535	
3	0	0	0	0	510	543	
4	0	0	0	0	506	406	
5	0	0	0	0	501	224	
6	0	0	0	0	504	266	
7	0	0	0	0	508	686	
8	0	0	0	0	527	655	
9	0	0	0	0	541	687	
10	0	0	0	0	532	574	
11	0	0	0	0	525	569	
12	0	0	0	0	516	536	
13	0	0	0	0	514	440	
14	0	0	0	0	518	464	
15	0	0	0	0	528	471	
0	0	0	0	0	519	476	
1	0	0	0	0	512	489	
2	0	0	0	0	503	498	
3	0	0	0	0	500	497	
4	0	0	0	0	499	495	
5	0	0	0	0	498	492	
6	0	0	0	0	496	493	
7	0	0	0	0	498	492	
8	0	0	0	0	501	490	
9	0	0	0	0	505	491	
10	0	0	0	0	512	494	
11	0	0	0	0	511	493	
12	0	0	0	0	510	481	
13	0	0	0	0	506	482	
14	0	0	0	0	505	485	
15	0	0	0	0	505	483	
0	0	0	0	0	507	491	
1	0	0	0	0	508	510	
2	0	0	0	0	508	528	
3	0	0	0	0	508	537	
4	0	0	0	0	513	538	
5	0	0	0	0	518	530	
6	0	0	0	0	521	521	
7	0	0	0	0	521	522	
8	0	0	0	0	519	516	
9	0	0	0	0	519	505	
10	0	0	0	0	518	501	
11	0	0	0	0	520	497	
12	0	0	0	0	515	512	
13	0	0	0	0	511	539	
14	0	0	0	0	511	504	
15	0	0	0	0	508	482	
0	0	0	0	0	508	467	
1	0	0	0	0	507	404	
2	0	0	0	0	502	294	
3	0	0	0	0	506	246	
4	0	0	0	0	500	406	
5	0	0	0	0	503	718	
6	0	0	0	0	510	822	
7	0	0	0	0	521	638	
8	0	0	0	0	519	679	
9	0	0	0	0	519	620	
10	0	0	0	0	520	609	
11	0	0	0	0	521	469	
12	0	0	0	0	517	400	
13	0	0	0	0	520	322	
14	0	0	0	0	519	428	
15	0	0	0	0	512	654	
0	0	0	0	0	511	531	
1	0	0	0	0	516	545	
2	0	0	0	0	516	573	
3	0	0	0	0	513	513	
4	0	0	0	0	510	496	
5	0	0	0	0	508	534	
6	0	0	0	0	505	526	
7	0	0	0	0	505	557	
8	0	0	0	0	498	381	
9	0	0	0	0	496	297	
10	0	0	0	0	500	365	
11	0	0	0	0	504	341	
12	0	0	0	0	500	358	
13	0	0	0	0	508	411	
14	0	0	0	0	522	550	
15	0	0	0	0	529	712	
0	0	0	0	0	524	494	
1	0	0	0	0	513	768	
2	0	0	0	0	515	847	
3	0	0	0	0	526	543	
4	0	0	0	0	533	408	
5	0	0	0	0	534	423	
6	0	0	0	0	519	506	
7	0	0	0	0	506	472	
8	0	0	0	0	504	559	
9	0	0	0	0	505	673	
10	0	0	0	0	509	581	
11	0	0	0	0	512	481	
12	0	0	0	0	510	473	
13	0	0	0	0	506	492	
14	0	0	0	0	504	508	
15	0	0	0	0	503	513	
0	0	0	0	0	498	462	
1	0	0	0	0	500	470	
2	0	0	0	0	500	415	
3	0	0	0	0	497	434	
4	0	0	0	0	489	381	
5	0	0	0	0	491	290	
6	0	0	0	0	497	420	
7	0	0	0	0	518	493	
8	0	0	0	0	529	697	
9	0	0	0	0	531	702	
10	0	0	0	0	540	675	
11	0	0	0	0	549	500	
12	0	0	0	0	542	437	
13	0	0	0	0	528	435	
14	0	0	0	0	515	470	
15	0	0	0	0	508	537	
0	0	0	0	0	504	542	
1	0	0	0	0	504	467	
2	0	0	0	0	501	519	
3	0	0	0	0	502	643	
4	0	0	0	0	505	585	
5	0	0	0	0	503	521	
6	0	0	0	0	502	469	
7	0	0	0	0	500	476	
8	0	0	0	0	502	374	
9	0	0	0	0	500	286	
10	0	0	0	0	494	253	
11	0	0	0	0	488	412	
12	0	0	0	0	490	452	
13	0	0	0	0	507	635	
14	0	0	0	0	522	728	
15	0	0	0	0	529	807	
0	0	0	0	0	529	579	
1	0	0	0	0	526	728	
2	0	0	0	0	534	575	
3	0	0	0	0	543	570	
4	0	0	0	0	543	536	
5	0	0	0	0	528	456	
6	0	0	0	0	515	410	
7	0	0	0	0	510	439	
8	0	0	0	0	503	470	
9	0	0	0	0	504	469	
10	0	0	0	0	504	516	
11	0	0	0	0	507	497	
12	0	0	0	0	505	470	
13	0	0	0	0	507	481	
14	0	0	0	0	510	497	
15	0	0	0	0	510	506	
0	0	0	0	0	508	520	
1	0	0	0	0	507	499	
2	0	0	0	0	507	483	
3	0	0	0	0	507	492	
4	0	0	0	0	506	499	
5	0	0	0	0	508	459	
6	0	0	0	0	504	432	
7	0	0	0	0	505	448	
8	0	0	0	0	508	461	
9	0	0	0	0	511	471	
10	0	0	0	0	510	476	
11	0	0	0	0	508	501	
12	0	0	0	0	506	576	
13	0	0	0	0	507	605	
14	0	0	0	0	507	393	
15	0	0	0	0	511	344	
0	0	0	0	0	511	440	
1	0	0	0	0	512	599	
2	0	0	0	0	509	526	
3	0	0	0	0	506	419	
4	0	0	0	0	508	612	
5	0	0	0	0	513	753	
6	0	0	0	0	521	539	
7	0	0	0	0	515	265	
8	0	0	0	0	511	308	
9	0	0	0	0	503	864	
10	0	0	0	0	509	741	
11	0	0	0	0	525	451	
12	0	0	0	0	536	715	
13	0	0	0	0	542	760	
14	0	0	0	0	542	502	
15	0	0	0	0	541	481	
0	0	0	0	0	537	475	
1	0	0	0	0	524	529	
2	0	0	0	0	511	521	
3	0	0	0	0	507	469	
4	0	0	0	0	499	475	
5	0	0	0	0	495	477	
6	0	0	0	0	495	307	
7	0	0	0	0	495	293	
8	0	0	0	0	495	462	
9	0	0	0	0	497	508	
10	0	0	0	0	503	458	
11	0	0	0	0	504	373	
12	0	0	0	0	505	484	
13	0	0	0	0	503	695	
14	0	0	0	0	505	655	
15	0	0	0	0	516	542	
0	0	0	0	0	528	482	
1	0	0	0	0	533	465	
2	0	0	0	0	526	489	
3	0	0	0	0	513	492	
4	0	0	0	0	507	488	
5	0	0	0	0	508	496	
6	0	0	0	0	504	499	
7	0	0	0	0	503	505	
8	0	0	0	0	504	489	
9	0	0	0	0	503	476	
10	0	0	0	0	501	451	
11	0	0	0	0	503	398	
12	0	0	0	0	512	420	
13	0	0	0	0	511	451	
14	0	0	0	0	514	471	
15	0	0	0	0	509	614	
0	0	0	0	0	503	752	
1	0	0	0	0	506	601	
2	0	0	0	0	514	491	
3	0	0	0	0	519	479	
4	0	0	0	0	519	600	
5	0	0	0	0	521	677	
6	0	0	0	0	523	663	
7	0	0	0	0	523	564	
8	0	0	0	0	522	466	
9	0	0	0	0	515	467	
10	0	0	0	0	511	512	
11	0	0	0	0	506	422	
12	0	0	0	0	506	363	
13	0	0	0	0	505	399	
14	0	0	0	0	499	449	
15	0	0	0	0	499	342	
0	0	0	0	0	496	219	
1	0	0	0	0	506	436	
2	0	0	0	0	522	809	
3	0	0	0	0	514	635	
4	0	0	0	0	514	542	
5	0	0	0	0	524	687	
6	0	0	0	0	533	629	
7	0	0	0	0	536	533	
8	0	0	0	0	531	508	
9	0	0	0	0	524	525	
10	0	0	0	0	511	509	
11	0	0	0	0	509	496	
12	0	0	0	0	503	484	
13	0	0	0	0	503	478	
14	0	0	0	0	505	480	
15	0	0	0	0	504	493	
0	0	0	0	0	505	502	
1	0	0	0	0	504	515	
2	0	0	0	0	505	525	
3	0	0	0	0	503	513	
4	0	0	0	0	505	508	
5	0	0	0	0	503	490	
6	0	0	0	0	501	446	
7	0	0	0	0	496	415	
8	0	0	0	0	492	410	
9	0	0	0	0	504	498	
10	0	0	0	0	521	433	
11	0	0	0	0	530	451	
12	0	0	0	0	525	508	
13	0	0	0	0	519	488	
14	0	0	0	0	514	523	
15	0	0	0	0	518	737	
0	0	0	0	0	523	663	
1	0	0	0	0	529	534	
2	0	0	0	0	526	506	
3	0	0	0	0	526	488	
4	0	0	0	0	516	490	
5	0	0	0	0	510	446	
6	0	0	0	0	499	414	
7	0	0	0	0	495	380	
8	0	0	0	0	491	319	
9	0	0	0	0	494	236	
10	0	0	0	0	496	308	
11	0	0	0	0	489	489	
12	0	0	0	0	484	669	
13	0	0	0	0	488	864	
14	0	0	0	0	494	1021	
15	0	0	0	0	519	993	
0	0	0	0	0	546	536	
1	0	0	0	0	561	353	
2	0	0	0	0	557	261	
3	0	0	0	0	542	519	
4	0	0	0	0	534	599	
5	0	0	0	0	522	445	
6	0	0	0	0	513	414	
7	0	0	0	0	505	436	
8	0	0	0	0	500	406	
9	0	0	0	0	503	408	
10	0	0	0	0	500	468	
11	0	0	0	0	499	496	
12	0	0	0	0	503	445	
13	0	0	0	0	500	574	
14	0	0	0	0	492	544	
15	0	0	0	0	495	486	
0	0	0	0	0	500	481	
1	0	0	0	0	505	449	
2	0	0	0	0	507	452	
3	0	0	0	0	505	382	
4	0	0	0	0	500	543	
5	0	0	0	0	502	624	
6	0	0	0	0	511	856	
7	0	0	0	0	531	720	
8	0	0	0	0	551	448	
9	0	0	0	0	552	416	
10	0	0	0	0	544	483	
11	0	0	0	0	533	472	
12	0	0	0	0	521	452	
13	0	0	0	0	513	463	
14	0	0	0	0	502	574	
15	0	0	0	0	502	512	
0	0	0	0	0	500	470	
1	0	0	0	0	500	477	
2	0	0	0	0	502	491	
3	0	0	0	0	505	483	
4	0	0	0	0	505	479	
5	0	0	0	0	505	480	
6	0	0	0	0	503	492	
7	0	0	0	0	504	479	
8	0	0	0	0	506	500	
9	0	0	0	0	507	516	
10	0	0	0	0	508	524	
11	0	0	0	0	508	514	
12	0	0	0	0	510	528	
13	0	0	0	0	507	607	
14	0	0	0	0	508	563	
15	0	0	0	0	507	454	
0	0	0	0	0	509	459	
1	0	0	0	0	513	488	
2	0	0	0	0	522	489	
3	0	0	0	0	520	499	
4	0	0	0	0	519	519	
5	0	0	0	0	518	511	
6	0	0	0	0	516	504	
7	0	0	0	0	512	497	
8	0	0	0	0	511	500	
9	0	0	0	0	515	507	
10	0	0	0	0	512	518	
11	0	0	0	0	514	516	
12	0	0	0	0	512	516	
13	0	0	0	0	510	480	
14	0	0	0	0	509	398	
15	0	0	0	0	503	281	
0	0	0	0	0	503	291	
1	0	0	0	0	504	319	
2	0	0	0	0	506	323	
3	0	0	0	0	503	539	
4	0	0	0	0	499	947	
5	0	0	0	0	499	1022	
6	0	0	0	0	500	790	
7	0	0	0	0	519	607	
8	0	0	0	0	530	600	
9	0	0	0	0	538	419	
10	0	0	0	0	537	364	
11	0	0	0	0	529	379	
12	0	0	0	0	526	399	
13	0	0	0	0	518	453	
14	0	0	0	0	504	484	
15	0	0	0	0	503	557	
0	0	0	0	0	500	728	
1	0	0	0	0	505	542	
2	0	0	0	0	508	433	
3	0	0	0	0	509	555	
4	0	0	0	0	504	491	
5	0	0	0	0	510	451	
6	0	0	0	0	523	340	
7	0	0	0	0	519	410	
8	0	0	0	0	512	474	
9	0	0	0	0	522	397	
10	0	0	0	0	522	401	
11	0	0	0	0	527	464	
12	0	0	0	0	518	537	
13	0	0	0	0	512	603	
14	0	0	0	0	507	551	
15	0	0	0	0	505	459	
0	0	0	0	0	504	448	
1	0	0	0	0	496	606	
2	0	0	0	0	497	651	
3	0	0	0	0	510	496	
4	0	0	0	0	510	370	
5	0	0	0	0	509	404	
6	0	0	0	0	507	467	
7	0	0	0	0	509	479	
8	0	0	0	0	510	626	
9	0	0	0	0	506	712	
10	0	0	0	0	499	803	
11	0	0	0	0	508	642	
12	0	0	0	0	521	422	
13	0	0	0	0	527	323	
14	0	0	0	0	525	533	
15	0	0	0	0	519	531	
0	0	0	0	0	515	407	
1	0	0	0	0	509	463	
2	0	0	0	0	505	544	
3	0	0	0	0	506	506	
4	0	0	0	0	509	467	
5	0	0	0	0	512	492	
6	0	0	0	0	512	527	
7	0	0	0	0	513	498	
8	0	0	0	0	515	494	
9	0	0	0	0	513	533	
10	0	0	0	0	515	487	
11	0	0	0	0	511	472	
12	0	0	0	0	510	469	
13	0	0	0	0	509	451	
14	0	0	0	0	511	464	
15	0	0	0	0	512	475	
0	0	0	0	0	510	482	
1	0	0	0	0	508	567	
2	0	0	0	0	506	566	
3	0	0	0	0	505	644	
4	0	0	0	0	509	595	
5	0	0	0	0	509	544	
6	0	0	0	0	511	504	
7	0	0	0	0	513	482	
8	0	0	0	0	512	462	
9	0	0	0	0	510	404	
10	0	0	0	0	508	383	
11	0	0	0	0	509	454	
12	0	0	0	0	518	500	
13	0	0	0	0	523	547	
14	0	0	0	0	519	546	
15	0	0	0	0	517	660	
0	0	0	0	0	511	543	
1	0	0	0	0	511	471	
2	0	0	0	0	511	462	
3	0	0	0	0	511	481	
4	0	0	0	0	511	461	
5	0	0	0	0	509	467	
6	0	0	0	0	506	441	
7	0	0	0	0	508	481	
8	0	0	0	0	509	567	
9	0	0	0	0	511	494	
10	0	0	0	0	511	491	
11	0	0	0	0	505	542	
12	0	0	0	0	506	479	
13	0	0	0	0	507	572	
14	0	0	0	0	507	537	
15	0	0	0	0	504	523	
0	0	0	0	0	507	420	
1	0	0	0	0	512	335	
2	0	0	0	0	516	686	
3	0	0	0	0	509	694	
4	0	0	0	0	507	529	
5	0	0	0	0	509	676	
6	0	0	0	0	514	620	
7	0	0	0	0	524	292	
8	0	0	0	0	530	355	
9	0	0	0	0	527	733	
10	0	0	0	0	525	470	
11	0	0	0	0	532	166	
12	0	0	0	0	533	254	
13	0	0	0	0	525	376	
14	0	0	0	0	515	629	
15	0	0	0	0	507	578	
0	0	0	0	0	496	955	
1	0	0	0	0	497	1021	
2	0	0	0	0	514	425	
3	0	0	0	0	532	341	
4	0	0	0	0	537	385	
5	0	0	0	0	527	427	
6	0	0	0	0	515	449	
7	0	0	0	0	504	474	
8	0	0	0	0	499	474	
9	0	0	0	0	497	472	
10	0	0	0	0	497	515	
11	0	0	0	0	499	525	
12	0	0	0	0	502	455	
13	0	0	0	0	504	455	
14	0	0	0	0	502	477	
15	0	0	0	0	504	471	
0	0	0	0	0	505	398	
1	0	0	0	0	501	380	
2	0	0	0	0	502	414	
3	0	0	0	0	496	284	
4	0	0	0	0	496	289	
5	0	0	0	0	495	421	
6	0	0	0	0	492	916	
7	0	0	0	0	489	846	
8	0	0	0	0	502	492	
9	0	0	0	0	496	860	
10	0	0	0	0	504	1022	
11	0	0	0	0	550	624	
12	0	0	0	0	587	204	
13	0	0	0	0	579	367	
14	0	0	0	0	559	496	
15	0	0	0	0	542	316	
0	0	0	0	0	534	396	
1	0	0	0	0	527	492	
2	0	0	0	0	515	474	
3	0	0	0	0	503	466	
4	0	0	0	0	495	469	
5	0	0	0	0	494	473	
6	0	0	0	0	493	479	
7	0	0	0	0	491	482	
8	0	0	0	0	490	458	
9	0	0	0	0	491	452	
10	0	0	0	0	489	471	
11	0	0	0	0	488	403	
12	0	0	0	0	491	343	
13	0	0	0	0	496	334	
14	0	0	0	0	500	440	
15	0	0	0	0	497	552	
0	0	0	0	0	496	565	
1	0	0	0	0	501	782	
2	0	0	0	0	515	1022	
3	0	0	0	0	533	889	
4	0	0	0	0	547	538	
5	0	0	0	0	553	437	
6	0	0	0	0	541	357	
7	0	0	0	0	537	351	
8	0	0	0	0	528	397	
9	0	0	0	0	520	429	
10	0	0	0	0	515	445	
11	0	0	0	0	512	463	
12	0	0	0	0	510	475	
13	0	0	0	0	505	482	
14	0	0	0	0	503	488	
15	0	0	0	0	500	492	
0	0	0	0	0	494	487	
1	0	0	0	0	493	494	
2	0	0	0	0	487	510	
3	0	0	0	0	492	444	
4	0	0	0	0	493	396	
5	0	0	0	0	499	389	
6	0	0	0	0	507	427	
7	0	0	0	0	507	527	
8	0	0	0	0	508	504	
9	0	0	0	0	507	653	
10	0	0	0	0	503	970	
11	0	0	0	0	514	729	
12	0	0	0	0	529	624	
13	0	0	0	0	536	533	
14	0	0	0	0	536	322	
15	0	0	0	0	536	312	
0	0	0	0	0	531	468	
1	0	0	0	0	529	451	
2	0	0	0	0	520	471	
3	0	0	0	0	513	411	
4	0	0	0	0	502	274	
5	0	0	0	0	498	305	
6	0	0	0	0	496	407	
7	0	0	0	0	494	410	
8	0	0	0	0	495	400	
9	0	0	0	0	493	471	
10	0	0	0	0	486	987	
11	0	0	0	0	484	889	
12	0	0	0	0	498	800	
13	0	0	0	0	518	635	
14	0	0	0	0	541	731	
15	0	0	0	0	548	461	
0	0	0	0	0	547	230	
1	0	0	0	0	550	305	
2	0	0	0	0	543	368	
3	0	0	0	0	533	395	
4	0	0	0	0	517	460	
5	0	0	0	0	505	508	
6	0	0	0	0	495	444	
7	0	0	0	0	489	520	
8	0	0	0	0	489	463	
9	0	0	0	0	489	399	
10	0	0	0	0	496	440	
11	0	0	0	0	497	585	
12	0	0	0	0	500	919	
13	0	0	0	0	503	807	
14	0	0	0	0	518	443	
15	0	0	0	0	533	611	
0	0	0	0	0	536	566	
1	0	0	0	0	531	426	
2	0	0	0	0	524	376	
3	0	0	0	0	517	373	
4	0	0	0	0	510	420	
5	0	0	0	0	507	399	
6	0	0	0	0	502	403	
7	0	0	0	0	503	508	
8	0	0	0	0	504	598	
9	0	0	0	0	510	540	
10	0	0	0	0	510	506	
11	0	0	0	0	507	504	
12	0	0	0	0	507	519	
13	0	0	0	0	505	509	
14	0	0	0	0	504	468	
15	0	0	0	0	504	482	
0	0	0	0	0	504	613	
1	0	0	0	0	505	529	
2	0	0	0	0	508	452	
3	0	0	0	0	509	458	
4	0	0	0	0	511	598	
5	0	0	0	0	509	540	
6	0	0	0	0	508	388	
7	0	0	0	0	512	413	
8	0	0	0	0	515	481	
9	0	0	0	0	519	474	
10	0	0	0	0	519	551	
11	0	0	0	0	517	504	
12	0	0	0	0	512	386	
13	0	0	0	0	505	500	
14	0	0	0	0	499	766	
15	0	0	0	0	504	643	
0	0	0	0	0	511	443	
1	0	0	0	0	522	480	
2	0	0	0	0	529	724	
3	0	0	0	0	536	487	
4	0	0	0	0	539	387	
5	0	0	0	0	536	419	
6	0	0	0	0	527	471	
7	0	0	0	0	517	577	
8	0	0	0	0	510	570	
9	0	0	0	0	507	502	
10	0	0	0	0	501	429	
11	0	0	0	0	497	379	
12	0	0	0	0	494	363	
13	0	0	0	0	499	403	
14	0	0	0	0	501	455	
15	0	0	0	0	500	449	
0	0	0	0	0	496	636	
1	0	0	0	0	489	845	
2	0	0	0	0	489	851	
3	0	0	0	0	504	529	
4	0	0	0	0	517	195	
5	0	0	0	0	519	428	
6	0	0	0	0	511	579	
7	0	0	0	0	521	546	
8	0	0	0	0	533	513	
9	0	0	0	0	535	394	
10	0	0	0	0	538	583	
11	0	0	0	0	532	669	
12	0	0	0	0	524	531	
13	0	0	0	0	523	456	
14	0	0	0	0	511	447	
15	0	0	0	0	509	458	
0	0	0	0	0	506	465	
1	0	0	0	0	508	469	
2	0	0	0	0	503	486	
3	0	0	0	0	500	531	
4	0	0	0	0	502	534	
5	0	0	0	0	507	507	
6	0	0	0	0	501	515	
7	0	0	0	0	499	507	
8	0	0	0	0	497	470	
9	0	0	0	0	498	418	
10	0	0	0	0	497	335	
11	0	0	0	0	496	327	
12	0	0	0	0	495	412	
13	0	0	0	0	499	455	
14	0	0	0	0	505	528	
15	0	0	0	0	516	638	
0	0	0	0	0	524	861	
1	0	0	0	0	523	1022	
2	0	0	0	0	534	790	
3	0	0	0	0	553	248	
4	0	0	0	0	565	175	
5	0	0	0	0	564	276	
6	0	0	0	0	551	394	
7	0	0	0	0	528	457	
8	0	0	0	0	511	492	
9	0	0	0	0	503	503	
10	0	0	0	0	493	506	
11	0	0	0	0	488	510	
12	0	0	0	0	482	512	
13	0	0	0	0	485	512	
14	0	0	0	0	491	510	
15	0	0	0	0	495	515	
0	0	0	0	0	498	521	
1	0	0	0	0	502	536	
2	0	0	0	0	504	483	
3	0	0	0	0	507	361	
4	0	0	0	0	504	385	
5	0	0	0	0	506	418	
6	0	0	0	0	503	410	
7	0	0	0	0	500	339	
8	0	0	0	0	492	430	
9	0	0	0	0	486	1022	
10	0	0	0	0	498	1022	
11	0	0	0	0	523	500	
12	0	0	0	0	539	400	
13	0	0	0	0	548	424	
14	0	0	0	0	549	441	
15	0	0	0	0	544	443	
0	0	0	0	0	538	449	
1	0	0	0	0	529	462	
2	0	0	0	0	518	474	
3	0	0	0	0	511	488	
4	0	0	0	0	503	483	
5	0	0	0	0	500	489	
6	0	0	0	0	493	440	
7	0	0	0	0	492	408	
8	0	0	0	0	495	416	
9	0	0	0	0	501	426	
10	0	0	0	0	501	448	
11	0	0	0	0	505	483	
12	0	0	0	0	505	643	
13	0	0	0	0	501	894	
14	0	0	0	0	501	716	
15	0	0	0	0	513	535	
0	0	0	0	0	525	578	
1	0	0	0	0	530	508	
2	0	0	0	0	524	489	
3	0	0	0	0	520	421	
4	0	0	0	0	522	329	
5	0	0	0	0	524	355	
6	0	0	0	0	519	435	
7	0	0	0	0	513	367	
8	0	0	0	0	509	367	
9	0	0	0	0	500	465	
10	0	0	0	0	499	558	
11	0	0	0	0	502	598	
12	0	0	0	0	500	518	
13	0	0	0	0	495	709	
14	0	0	0	0	498	736	
15	0	0	0	0	511	548	
0	0	0	0	0	519	399	
1	0	0	0	0	526	428	
2	0	0	0	0	526	366	
3	0	0	0	0	523	538	
4	0	0	0	0	517	598	
5	0	0	0	0	518	476	
6	0	0	0	0	515	465	
7	0	0	0	0	511	467	
8	0	0	0	0	507	530	
9	0	0	0	0	510	477	
10	0	0	0	0	513	434	
11	0	0	0	0	516	449	
12	0	0	0	0	513	695	
13	0	0	0	0	508	718	
14	0	0	0	0	507	566	
15	0	0	0	0	510	453	
0	0	0	0	0	509	375	
1	0	0	0	0	503	238	
2	0	0	0	0	495	305	
3	0	0	0	0	492	616	
4	0	0	0	0	491	825	
5	0	0	0	0	510	665	
6	0	0	0	0	527	424	
7	0	0	0	0	532	496	
8	0	0	0	0	530	664	
9	0	0	0	0	529	616	
10	0	0	0	0	522	511	
11	0	0	0	0	520	487	
12	0	0	0	0	514	474	
13	0	0	0	0	510	549	
14	0	0	0	0	512	509	
15	0	0	0	0	517	384	
0	0	0	0	0	523	394	
1	0	0	0	0	519	415	
2	0	0	0	0	510	441	
3	0	0	0	0	500	484	
4	0	0	0	0	494	439	
5	0	0	0	0	501	411	
6	0	0	0	0	499	547	
7	0	0	0	0	498	600	
8	0	0	0	0	495	578	
9	0	0	0	0	492	579	
10	0	0	0	0	495	767	
11	0	0	0	0	497	594	
12	0	0	0	0	512	213	
13	0	0	0	0	529	366	
14	0	0	0	0	537	412	
15	0	0	0	0	539	469	
0	0	0	0	0	532	511	
1	0	0	0	0	526	680	
2	0	0	0	0	520	699	
3	0	0	0	0	515	598	
4	0	0	0	0	516	544	
5	0	0	0	0	518	495	
6	0	0	0	0	512	454	
7	0	0	0	0	508	475	
8	0	0	0	0	510	468	
9	0	0	0	0	507	485	
10	0	0	0	0	502	416	
11	0	0	0	0	503	341	
12	0	0	0	0	503	411	
13	0	0	0	0	500	388	
14	0	0	0	0	498	336	
15	0	0	0	0	497	425	
0	0	0	0	0	494	758	
1	0	0	0	0	493	808	
2	0	0	0	0	503	495	
3	0	0	0	0	512	420	
4	0	0	0	0	513	866	
5	0	0	0	0	524	667	
6	0	0	0	0	538	480	
7	0	0	0	0	542	587	
8	0	0	0	0	539	555	
9	0	0	0	0	533	460	
10	0	0	0	0	522	443	
11	0	0	0	0	513	428	
12	0	0	0	0	500	416	
13	0	0	0	0	500	450	
14	0	0	0	0	497	447	
15	0	0	0	0	498	468	
0	0	0	0	0	501	468	
1	0	0	0	0	504	448	
2	0	0	0	0	501	390	
3	0	0	0	0	499	352	
4	0	0	0	0	501	475	
5	0	0	0	0	502	552	
6	0	0	0	0	509	487	
7	0	0	0	0	514	443	
8	0	0	0	0	515	683	
9	0	0	0	0	510	1022	
10	0	0	0	0	501	809	
11	0	0	0	0	519	413	
12	0	0	0	0	535	295	
13	0	0	0	0	544	499	
14	0	0	0	0	543	460	
15	0	0	0	0	533	483	
0	0	0	0	0	519	430	
1	0	0	0	0	512	465	
2	0	0	0	0	505	485	
3	0	0	0	0	500	498	
4	0	0	0	0	495	483	
5	0	0	0	0	495	411	
6	0	0	0	0	501	406	
7	0	0	0	0	507	440	
8	0	0	0	0	509	466	
9	0	0	0	0	503	503	
10	0	0	0	0	497	531	
11	0	0	0	0	501	586	
12	0	0	0	0	508	410	
13	0	0	0	0	512	397	
14	0	0	0	0	515	480	
15	0	0	0	0	512	647	
0	0	0	0	0	506	806	
1	0	0	0	0	517	521	
2	0	0	0	0	533	480	
3	0	0	0	0	532	375	
4	0	0	0	0	529	651	
5	0	0	0	0	516	787	
6	0	0	0	0	510	682	
7	0	0	0	0	509	650	
8	0	0	0	0	512	493	
9	0	0	0	0	519	374	
10	0	0	0	0	517	463	
11	0	0	0	0	511	464	
12	0	0	0	0	515	424	
13	0	0	0	0	517	589	
14	0	0	0	0	515	460	
15	0	0	0	0	519	349	
0	0	0	0	0	514	313	
1	0	0	0	0	506	316	
2	0	0	0	0	501	409	
3	0	0	0	0	498	572	
4	0	0	0	0	492	695	
5	0	0	0	0	490	624	
6	0	0	0	0	500	504	
7	0	0	0	0	512	384	
8	0	0	0	0	517	341	
9	0	0	0	0	514	276	
10	0	0	0	0	508	338	
11	0	0	0	0	505	487	
12	0	0	0	0	501	691	
13	0	0	0	0	501	755	
14	0	0	0	0	499	592	
15	0	0	0	0	508	497	
0	0	0	0	0	524	743	
1	0	0	0	0	534	621	
2	0	0	0	0	537	409	
3	0	0	0	0	528	376	
4	0	0	0	0	516	521	
5	0	0	0	0	507	795	
6	0	0	0	0	502	632	
7	0	0	0	0	507	390	
8	0	0	0	0	515	440	
9	0	0	0	0	521	603	
10	0	0	0	0	515	496	
11	0	0	0	0	509	244	
12	0	0	0	0	507	246	
13	0	0	0	0	508	344	
14	0	0	0	0	504	552	
15	0	0	0	0	504	684	
0	0	0	0	0	500	782	
1	0	0	0	0	506	713	
2	0	0	0	0	516	412	
3	0	0	0	0	521	321	
4	0	0	0	0	528	388	
5	0	0	0	0	528	506	
6	0	0	0	0	514	679	
7	0	0	0	0	504	577	
8	0	0	0	0	497	422	
9	0	0	0	0	500	325	
10	0	0	0	0	503	331	
11	0	0	0	0	502	277	
12	0	0	0	0	502	336	
13	0	0	0	0	500	921	
14	0	0	0	0	504	1022	
15	0	0	0	0	525	676	
0	0	0	0	0	545	594	
1	0	0	0	0	552	336	
2	0	0	0	0	545	441	
3	0	0	0	0	531	620	
4	0	0	0	0	523	512	
5	0	0	0	0	513	331	
6	0	0	0	0	497	202	
7	0	0	0	0	494	258	
8	0	0	0	0	497	396	
9	0	0	0	0	503	557	
10	0	0	0	0	504	516	
11	0	0	0	0	504	672	
12	0	0	0	0	499	728	
13	0	0	0	0	507	630	
14	0	0	0	0	506	634	
15	0	0	0	0	505	555	
0	0	0	0	0	507	468	
1	0	0	0	0	508	425	
2	0	0	0	0	507	472	
3	0	0	0	0	508	459	
4	0	0	0	0	512	488	
5	0	0	0	0	517	421	
6	0	0	0	0	521	307	
7	0	0	0	0	530	291	
8	0	0	0	0	527	480	
9	0	0	0	0	512	733	
10	0	0	0	0	505	899	
11	0	0	0	0	511	534	
12	0	0	0	0	512	522	
13	0	0	0	0	516	473	
14	0	0	0	0	514	372	
15	0	0	0	0	505	310	
0	0	0	0	0	503	313	
1	0	0	0	0	503	442	
2	0	0	0	0	499	621	
3	0	0	0	0	496	524	
4	0	0	0	0	497	801	
5	0	0	0	0	507	679	
6	0	0	0	0	516	433	
7	0	0	0	0	525	501	
8	0	0	0	0	525	509	
9	0	0	0	0	519	526	
10	0	0	0	0	520	468	
11	0	0	0	0	524	535	
12	0	0	0	0	529	451	
13	0	0	0	0	527	345	
14	0	0	0	0	520	567	
15	0	0	0	0	510	546	
0	0	0	0	0	504	401	
1	0	0	0	0	502	403	
2	0	0	0	0	501	518	
3	0	0	0	0	497	575	
4	0	0	0	0	499	455	
5	0	0	0	0	505	510	
6	0	0	0	0	519	635	
7	0	0	0	0	521	581	
8	0	0	0	0	516	453	
9	0	0	0	0	507	518	
10	0	0	0	0	500	882	
11	0	0	0	0	508	677	
12	0	0	0	0	523	451	
13	0	0	0	0	528	345	
14	0	0	0	0	521	290	
15	0	0	0	0	518	352	
0	0	0	0	0	512	415	
1	0	0	0	0	505	432	
2	0	0	0	0	498	393	
3	0	0	0	0	491	627	
4	0	0	0	0	490	603	
5	0	0	0	0	497	423	
6	0	0	0	0	502	437	
7	0	0	0	0	512	559	
8	0	0	0	0	518	843	
9	0	0	0	0	525	714	
10	0	0	0	0	521	479	
11	0	0	0	0	525	315	
12	0	0	0	0	527	224	
13	0	0	0	0	524	278	
14	0	0	0	0	516	257	
15	0	0	0	0	508	417	
0	0	0	0	0	501	693	
1	0	0	0	0	492	1022	
2	0	0	0	0	506	1022	
3	0	0	0	0	525	692	
4	0	0	0	0	540	480	
5	0	0	0	0	546	227	
6	0	0	0	0	540	255	
7	0	0	0	0	521	294	
8	0	0	0	0	501	339	
9	0	0	0	0	493	393	
10	0	0	0	0	493	431	
11	0	0	0	0	492	527	
12	0	0	0	0	491	468	
13	0	0	0	0	499	586	
14	0	0	0	0	514	600	
15	0	0	0	0	519	441	
0	0	0	0	0	517	358	
1	0	0	0	0	521	376	
2	0	0	0	0	518	414	
3	0	0	0	0	509	386	
4	0	0	0	0	504	448	
5	0	0	0	0	493	475	
6	0	0	0	0	487	279	
7	0	0	0	0	491	194	
8	0	0	0	0	487	560	
9	0	0	0	0	480	967	
10	0	0	0	0	481	1022	
11	0	0	0	0	503	1022	
12	0	0	0	0	531	1022	
13	0	0	0	0	561	479	
14	0	0	0	0	570	252	
15	0	0	0	0	574	216	
0	0	0	0	0	568	277	
1	0	0	0	0	558	197	
2	0	0	0	0	529	268	
3	0	0	0	0	505	354	
4	0	0	0	0	487	423	
5	0	0	0	0	475	486	
6	0	0	0	0	473	494	
7	0	0	0	0	480	456	
8	0	0	0	0	484	439	
9	0	0	0	0	488	567	
10	0	0	0	0	494	671	
11	0	0	0	0	504	642	
12	0	0	0	0	506	521	
13	0	0	0	0	497	455	
14	0	0	0	0	498	348	
15	0	0	0	0	501	491	
0	0	0	0	0	515	337	
1	0	0	0	0	527	514	
2	0	0	0	0	533	1020	
3	0	0	0	0	539	1021	
4	0	0	0	0	542	634	
5	0	0	0	0	541	472	
6	0	0	0	0	527	289	
7	0	0	0	0	527	184	
8	0	0	0	0	529	311	
9	0	0	0	0	524	454	
10	0	0	0	0	510	526	
11	0	0	0	0	496	465	
12	0	0	0	0	490	357	
13	0	0	0	0	491	301	
14	0	0	0	0	493	304	
15	0	0	0	0	491	379	
0	0	0	0	0	490	507	
1	0	0	0	0	493	764	
2	0	0	0	0	500	829	
3	0	0	0	0	507	699	
4	0	0	0	0	510	931	
5	0	0	0	0	514	736	
6	0	0	0	0	527	447	
7	0	0	0	0	543	379	
8	0	0	0	0	550	460	
9	0	0	0	0	538	470	
10	0	0	0	0	519	294	
11	0	0	0	0	513	238	
12	0	0	0	0	514	281	
13	0	0	0	0	503	322	
14	0	0	0	0	493	370	
15	0	0	0	0	487	583	
0	0	0	0	0	480	1021	
1	0	0	0	0	483	753	
2	0	0	0	0	493	287	
3	0	0	0	0	509	435	
4	0	0	0	0	527	484	
5	0	0	0	0	536	465	
6	0	0	0	0	533	578	
7	0	0	0	0	531	702	
8	0	0	0	0	524	674	
9	0	0	0	0	522	506	
10	0	0	0	0	521	420	
11	0	0	0	0	513	403	
12	0	0	0	0	504	417	
13	0	0	0	0	504	529	
14	0	0	0	0	497	427	
15	0	0	0	0	494	340	
0	0	0	0	0	486	406	
1	0	0	0	0	476	613	
2	0	0	0	0	488	505	
3	0	0	0	0	509	454	
4	0	0	0	0	528	696	
5	0	0	0	0	536	714	
6	0	0	0	0	534	958	
7	0	0	0	0	527	795	
8	0	0	0	0	527	456	
9	0	0	0	0	525	212	
10	0	0	0	0	525	185	
11	0	0	0	0	524	294	
12	0	0	0	0	519	345	
13	0	0	0	0	511	612	
14	0	0	0	0	497	555	
15	0	0	0	0	488	511	
0	0	0	0	0	493	554	
1	0	0	0	0	496	615	
2	0	0	0	0	499	407	
3	0	0	0	0	511	355	
4	0	0	0	0	521	449	
5	0	0	0	0	526	495	
6	0	0	0	0	527	492	
7	0	0	0	0	519	570	
8	0	0	0	0	514	675	
9	0	0	0	0	513	508	
10	0	0	0	0	514	374	
11	0	0	0	0	512	327	
12	0	0	0	0	512	402	
13	0	0	0	0	504	755	
14	0	0	0	0	499	694	
15	0	0	0	0	494	603	
0	0	0	0	0	498	598	
1	0	0	0	0	509	551	
2	0	0	0	0	515	411	
3	0	0	0	0	512	467	
4	0	0	0	0	508	516	
5	0	0	0	0	499	435	
6	0	0	0	0	491	352	
7	0	0	0	0	492	652	
8	0	0	0	0	509	331	
9	0	0	0	0	538	225	
10	0	0	0	0	555	378	
11	0	0	0	0	545	316	
12	0	0	0	0	536	511	
13	0	0	0	0	536	685	
14	0	0	0	0	526	1022	
15	0	0	0	0	511	1022	
0	0	0	0	0	512	579	
1	0	0	0	0	511	348	
2	0	0	0	0	508	347	
3	0	0	0	0	504	403	
4	0	0	0	0	499	454	
5	0	0	0	0	497	515	
6	0	0	0	0	499	580	
7	0	0	0	0	494	532	
8	0	0	0	0	482	484	
9	0	0	0	0	491	285	
10	0	0	0	0	517	329	
11	0	0	0	0	521	413	
12	0	0	0	0	511	380	
13	0	0	0	0	496	590	
14	0	0	0	0	483	1022	
15	0	0	0	0	497	655	
0	0	0	0	0	524	502	
1	0	0	0	0	546	362	
2	0	0	0	0	553	381	
3	0	0	0	0	542	352	
4	0	0	0	0	527	388	
5	0	0	0	0	504	365	
6	0	0	0	0	497	554	
7	0	0	0	0	502	414	
8	0	0	0	0	515	273	
9	0	0	0	0	515	263	
10	0	0	0	0	520	559	
11	0	0	0	0	515	662	
12	0	0	0	0	510	796	
13	0	0	0	0	498	1012	
14	0	0	0	0	495	543	
15	0	0	0	0	498	323	
0	0	0	0	0	503	277	
1	0	0	0	0	492	315	
2	0	0	0	0	488	307	
3	0	0	0	0	494	238	
4	0	0	0	0	496	567	
5	0	0	0	0	493	1022	
6	0	0	0	0	513	1015	
7	0	0	0	0	536	661	
8	0	0	0	0	547	382	
9	0	0	0	0	552	494	
10	0	0	0	0	540	499	
11	0	0	0	0	534	263	
12	0	0	0	0	529	184	
13	0	0	0	0	517	229	
14	0	0	0	0	510	406	
15	0	0	0	0	503	742	
0	0	0	0	0	501	778	
1	0	0	0	0	512	529	
2	0	0	0	0	515	529	
3	0	0	0	0	518	573	
4	0	0	0	0	514	460	
5	0	0	0	0	508	398	
6	0	0	0	0	499	441	
7	0	0	0	0	492	423	
8	0	0	0	0	489	346	
9	0	0	0	0	487	364	
10	0	0	0	0	479	353	
11	0	0	0	0	476	470	
12	0	0	0	0	479	713	
13	0	0	0	0	496	803	
14	0	0	0	0	519	854	
15	0	0	0	0	549	798	
0	0	0	0	0	555	827	
1	0	0	0	0	550	456	
2	0	0	0	0	551	351	
3	0	0	0	0	543	371	
4	0	0	0	0	524	371	
5	0	0	0	0	515	272	
6	0	0	0	0	504	263	
7	0	0	0	0	495	303	
8	0	0	0	0	492	383	
9	0	0	0	0	494	755	
10	0	0	0	0	502	665	
11	0	0	0	0	508	679	
12	0	0	0	0	514	480	
13	0	0	0	0	521	415	
14	0	0	0	0	527	608	
15	0	0	0	0	520	602	
0	0	0	0	0	508	544	
1	0	0	0	0	504	530	
2	0	0	0	0	496	388	
3	0	0	0	0	485	260	
4	0	0	0	0	485	189	
5	0	0	0	0	492	337	
6	0	0	0	0	502	383	
7	0	0	0	0	519	406	
8	0	0	0	0	525	501	
9	0	0	0	0	514	1022	
10	0	0	0	0	513	1022	
11	0	0	0	0	524	510	
12	0	0	0	0	522	371	
13	0	0	0	0	515	674	
14	0	0	0	0	519	532	
15	0	0	0	0	521	318	
0	0	0	0	0	513	335	
1	0	0	0	0	505	397	
2	0	0	0	0	510	373	
3	0	0	0	0	511	538	
4	0	0	0	0	531	444	
5	0	0	0	0	538	402	
6	0	0	0	0	532	469	
7	0	0	0	0	524	612	
8	0	0	0	0	518	591	
9	0	0	0	0	511	702	
10	0	0	0	0	505	537	
11	0	0	0	0	499	314	
12	0	0	0	0	500	283	
13	0	0	0	0	502	378	
14	0	0	0	0	492	545	
15	0	0	0	0	492	601	
0	0	0	0	0	495	639	
1	0	0	0	0	494	718	
2	0	0	0	0	492	676	
3	0	0	0	0	500	551	
4	0	0	0	0	511	287	
5	0	0	0	0	533	185	
6	0	0	0	0	541	387	
7	0	0	0	0	534	398	
8	0	0	0	0	528	427	
9	0	0	0	0	519	712	
10	0	0	0	0	514	1011	
11	0	0	0	0	510	706	
12	0	0	0	0	518	537	
13	0	0	0	0	521	388	
14	0	0	0	0	518	436	
15	0	0	0	0	511	428	
0	0	0	0	0	496	420	
1	0	0	0	0	492	448	
2	0	0	0	0	498	450	
3	0	0	0	0	506	453	
4	0	0	0	0	509	462	
5	0	0	0	0	511	492	
6	0	0	0	0	513	615	
7	0	0	0	0	514	565	
8	0	0	0	0	515	465	
9	0	0	0	0	524	488	
10	0	0	0	0	520	552	
11	0	0	0	0	510	580	
12	0	0	0	0	504	523	
13	0	0	0	0	497	322	
14	0	0	0	0	499	213	
15	0	0	0	0	504	292	
0	0	0	0	0	501	272	
1	0	0	0	0	502	322	
2	0	0	0	0	503	616	
3	0	0	0	0	507	826	
4	0	0	0	0	511	1022	
5	0	0	0	0	516	1022	
6	0	0	0	0	530	697	
7	0	0	0	0	548	479	
8	0	0	0	0	543	516	
9	0	0	0	0	531	544	
10	0	0	0	0	521	446	
11	0	0	0	0	514	352	
12	0	0	0	0	506	316	
13	0	0	0	0	500	255	
14	0	0	0	0	494	388	
15	0	0	0	0	493	510	
0	0	0	0	0	484	505	
1	0	0	0	0	495	434	
2	0	0	0	0	511	550	
3	0	0	0	0	521	530	
4	0	0	0	0	533	490	
5	0	0	0	0	521	427	
6	0	0	0	0	513	371	
7	0	0	0	0	508	489	
8	0	0	0	0	509	448	
9	0	0	0	0	521	506	
10	0	0	0	0	514	619	
11	0	0	0	0	509	584	
12	0	0	0	0	510	766	
13	0	0	0	0	515	765	
14	0	0	0	0	532	725	
15	0	0	0	0	540	590	
0	0	0	0	0	528	353	
1	0	0	0	0	514	261	
2	0	0	0	0	500	281	
3	0	0	0	0	492	369	
4	0	0	0	0	492	380	
5	0	0	0	0	494	321	
6	0	0	0	0	496	573	
7	0	0	0	0	501	772	
8	0	0	0	0	510	646	
9	0	0	0	0	518	483	
10	0	0	0	0	516	543	
11	0	0	0	0	518	482	
12	0	0	0	0	512	611	
13	0	0	0	0	508	729	
14	0	0	0	0	508	701	
15	0	0	0	0	516	461	
0	0	0	0	0	519	407	
1	0	0	0	0	519	391	
2	0	0	0	0	514	403	
3	0	0	0	0	508	295	
4	0	0	0	0	500	201	
5	0	0	0	0	504	252	
6	0	0	0	0	505	280	
7	0	0	0	0	508	429	
8	0	0	0	0	502	1022	
9	0	0	0	0	500	1022	
10	0	0	0	0	513	871	
11	0	0	0	0	531	414	
12	0	0	0	0	537	286	
13	0	0	0	0	531	245	
14	0	0	0	0	516	243	
15	0	0	0	0	512	328	
0	0	0	0	0	518	531	
1	0	0	0	0	511	540	
2	0	0	0	0	501	597	
3	0	0	0	0	504	831	
4	0	0	0	0	512	739	
5	0	0	0	0	512	543	
6	0	0	0	0	515	565	
7	0	0	0	0	510	675	
8	0	0	0	0	512	547	
9	0	0	0	0	517	359	
10	0	0	0	0	517	293	
11	0	0	0	0	515	331	
12	0	0	0	0	513	390	
13	0	0	0	0	507	605	
14	0	0	0	0	504	597	
15	0	0	0	0	501	393	
0	0	0	0	0	499	372	
1	0	0	0	0	502	432	
2	0	0	0	0	503	439	
3	0	0	0	0	509	319	
4	0	0	0	0	513	536	
5	0	0	0	0	512	918	
6	0	0	0	0	519	744	
7	0	0	0	0	521	420	
8	0	0	0	0	511	364	
9	0	0	0	0	510	341	
10	0	0	0	0	513	347	
11	0	0	0	0	514	414	
12	0	0	0	0	507	500	
13	0	0	0	0	497	700	
14	0	0	0	0	503	1022	
15	0	0	0	0	528	852	
0	0	0	0	0	525	579	
1	0	0	0	0	526	296	
2	0	0	0	0	530	314	
3	0	0	0	0	529	385	
4	0	0	0	0	515	468	
5	0	0	0	0	505	498	
6	0	0	0	0	499	450	
7	0	0	0	0	500	472	
8	0	0	0	0	497	473	
9	0	0	0	0	489	453	
10	0	0	0	0	487	266	
11	0	0	0	0	500	534	
12	0	0	0	0	518	620	
13	0	0	0	0	526	515	
14	0	0	0	0	521	513	
15	0	0	0	0	520	579	
0	0	0	0	0	517	595	
1	0	0	0	0	526	552	
2	0	0	0	0	528	524	
3	0	0	0	0	521	509	
4	0	0	0	0	511	483	
5	0	0	0	0	508	486	
6	0	0	0	0	503	481	
7	0	0	0	0	498	475	
8	0	0	0	0	497	400	
9	0	0	0	0	498	373	
10	0	0	0	0	504	300	
11	0	0	0	0	504	259	
12	0	0	0	0	511	360	
13	0	0	0	0	514	504	
14	0	0	0	0	516	683	
15	0	0	0	0	514	952	
0	0	0	0	0	511	1022	
1	0	0	0	0	517	882	
2	0	0	0	0	528	512	
3	0	0	0	0	527	323	
4	0	0	0	0	522	255	
5	0	0	0	0	516	279	
6	0	0	0	0	510	863	
7	0	0	0	0	515	831	
8	0	0	0	0	513	447	
9	0	0	0	0	529	190	
10	0	0	0	0	529	267	
11	0	0	0	0	511	355	
12	0	0	0	0	499	565	
13	0	0	0	0	498	677	
14	0	0	0	0	501	591	
15	0	0	0	0	510	566	
0	0	0	0	0	503	429	
1	0	0	0	0	497	239	
2	0	0	0	0	497	97	
3	0	0	0	0	496	139	
4	0	0	0	0	492	300	
5	0	0	0	0	492	474	
6	0	0	0	0	493	1022	
7	0	0	0	0	505	1022	
8	0	0	0	0	532	739	
9	0	0	0	0	552	391	
10	0	0	0	0	549	276	
11	0	0	0	0	531	192	
12	0	0	0	0	507	205	
13	0	0	0	0	501	601	
14	0	0	0	0	510	785	
15	0	0	0	0	511	803	
0	0	0	0	0	523	449	
1	0	0	0	0	533	411	
2	0	0	0	0	526	499	
3	0	0	0	0	518	563	
4	0	0	0	0	515	524	
5	0	0	0	0	509	424	
6	0	0	0	0	503	441	
7	0	0	0	0	499	460	
8	0	0	0	0	496	431	
9	0	0	0	0	496	496	
10	0	0	0	0	496	496	
11	0	0	0	0	501	413	
12	0	0	0	0	506	387	
13	0	0	0	0	510	434	
14	0	0	0	0	512	651	
15	0	0	0	0	513	587	
0	0	0	0	0	503	363	
1	0	0	0	0	498	505	
2	0	0	0	0	499	472	
3	0	0	0	0	509	546	
4	0	0	0	0	509	652	
5	0	0	0	0	517	727	
6	0	0	0	0	538	652	
7	0	0	0	0	542	549	
8	0	0	0	0	536	489	
9	0	0	0	0	526	478	
10	0	0	0	0	518	464	
11	0	0	0	0	515	461	
12	0	0	0	0	507	519	
13	0	0	0	0	503	530	
14	0	0	0	0	499	496	
15	0	0	0	0	501	422	
0	0	0	0	0	498	361	
1	0	0	0	0	502	484	
2	0	0	0	0	504	465	
3	0	0	0	0	506	407	
4	0	0	0	0	511	552	
5	0	0	0	0	521	545	
6	0	0	0	0	527	480	
7	0	0	0	0	527	424	
8	0	0	0	0	518	400	
9	0	0	0	0	511	324	
10	0	0	0	0	501	401	
11	0	0	0	0	492	440	
12	0	0	0	0	487	463	
13	0	0	0	0	488	619	
14	0	0	0	0	497	931	
15	0	0	0	0	515	1022	
0	0	0	0	0	524	670	
1	0	0	0	0	534	445	
2	0	0	0	0	535	397	
3	0	0	0	0	525	579	
4	0	0	0	0	523	362	
5	0	0	0	0	522	235	
6	0	0	0	0	515	381	
7	0	0	0	0	511	559	
8	0	0	0	0	505	676	
9	0	0	0	0	505	606	
10	0	0	0	0	512	484	
11	0	0	0	0	518	441	
12	0	0	0	0	516	451	
13	0	0	0	0	510	455	
14	0	0	0	0	506	407	
15	0	0	0	0	500	554	
0	0	0	0	0	494	500	
1	0	0	0	0	496	330	
2	0	0	0	0	493	529	
3	0	0	0	0	499	573	
4	0	0	0	0	519	537	
5	0	0	0	0	534	574	
6	0	0	0	0	537	600	
7	0	0	0	0	531	482	
8	0	0	0	0	524	507	
9	0	0	0	0	519	515	
10	0	0	0	0	512	324	
11	0	0	0	0	510	451	
12	0	0	0	0	504	551	
13	0	0	0	0	504	560	
14	0	0	0	0	509	478	
15	0	0	0	0	511	450	
0	0	0	0	0	509	352	
1	0	0	0	0	504	552	
2	0	0	0	0	500	671	
3	0	0	0	0	501	648	
4	0	0	0	0	499	550	
5	0	0	0	0	502	752	
6	0	0	0	0	509	545	
7	0	0	0	0	520	425	
8	0	0	0	0	512	409	
9	0	0	0	0	512	268	
10	0	0	0	0	512	412	
11	0	0	0	0	518	533	
12	0	0	0	0	517	186	
13	0	0	0	0	501	242	
14	0	0	0	0	492	847	
15	0	0	0	0	505	656	
0	0	0	0	0	526	631	
1	0	0	0	0	543	650	
2	0	0	0	0	541	563	
3	0	0	0	0	532	537	
4	0	0	0	0	512	652	
5	0	0	0	0	508	650	
6	0	0	0	0	513	560	
7	0	0	0	0	523	516	
8	0	0	0	0	520	501	
9	0	0	0	0	504	466	
10	0	0	0	0	493	314	
11	0	0	0	0	494	281	
12	0	0	0	0	496	470	
13	0	0	0	0	504	515	
14	0	0	0	0	510	533	
15	0	0	0	0	509	540	
0	0	0	0	0	508	420	
1	0	0	0	0	509	354	
2	0	0	0	0	506	269	
3	0	0	0	0	503	316	
4	0	0	0	0	496	679	
5	0	0	0	0	498	1022	
6	0	0	0	0	518	644	
7	0	0	0	0	528	527	
8	0	0	0	0	526	422	
9	0	0	0	0	522	269	
10	0	0	0	0	518	314	
11	0	0	0	0	524	628	
12	0	0	0	0	525	767	
13	0	0	0	0	528	625	
14	0	0	0	0	521	469	
15	0	0	0	0	514	436	
0	0	0	0	0	512	456	
1	0	0	0	0	505	474	
2	0	0	0	0	500	489	
3	0	0	0	0	496	501	
4	0	0	0	0	496	499	
5	0	0	0	0	501	481	
6	0	0	0	0	501	467	
7	0	0	0	0	508	347	
8	0	0	0	0	504	291	
9	0	0	0	0	502	366	
10	0	0	0	0	504	430	
11	0	0	0	0	503	526	
12	0	0	0	0	504	1022	
13	0	0	0	0	513	849	
14	0	0	0	0	528	496	
15	0	0	0	0	534	398	
0	0	0	0	0	528	302	
1	0	0	0	0	519	401	
2	0	0	0	0	512	375	
3	0	0	0	0	511	348	
4	0	0	0	0	509	265	
5	0	0	0	0	496	945	
6	0	0	0	0	516	1022	
7	0	0	0	0	530	669	
8	0	0	0	0	532	363	
9	0	0	0	0	523	334	
10	0	0	0	0	509	391	
11	0	0	0	0	500	471	
12	0	0	0	0	501	524	
13	0	0	0	0	507	545	
14	0	0	0	0	504	440	
15	0	0	0	0	501	475	
0	0	0	0	0	505	403	
1	0	0	0	0	504	168	
2	0	0	0	0	498	460	
3	0	0	0	0	498	844	
4	0	0	0	0	516	684	
5	0	0	0	0	526	366	
6	0	0	0	0	520	135	
7	0	0	0	0	503	408	
8	0	0	0	0	512	776	
9	0	0	0	0	537	732	
10	0	0	0	0	551	730	
11	0	0	0	0	545	508	
12	0	0	0	0	527	448	
13	0	0	0	0	508	294	
14	0	0	0	0	486	216	
15	0	0	0	0	480	796	
0	0	0	0	0	495	863	
1	0	0	0	0	508	695	
2	0	0	0	0	520	415	
3	0	0	0	0	512	244	
4	0	0	0	0	506	293	
5	0	0	0	0	505	519	
6	0	0	0	0	516	434	
7	0	0	0	0	512	693	
8	0	0	0	0	520	669	
9	0	0	0	0	528	496	
10	0	0	0	0	525	435	
11	0	0	0	0	511	403	
12	0	0	0	0	497	417	
13	0	0	0	0	488	391	
14	0	0	0	0	486	217	
15	0	0	0	0	483	442	
0	0	0	0	0	495	702	
1	0	0	0	0	507	770	
2	0	0	0	0	519	444	
3	0	0	0	0	528	229	
4	0	0	0	0	538	371	
5	0	0	0	0	544	671	
6	0	0	0	0	529	557	
7	0	0	0	0	511	859	
8	0	0	0	0	515	883	
9	0	0	0	0	524	591	
10	0	0	0	0	519	559	
11	0	0	0	0	518	473	
12	0	0	0	0	513	478	
13	0	0	0	0	500	542	
14	0	0	0	0	496	377	
15	0	0	0	0	505	406	
0	0	0	0	0	502	425	
1	0	0	0	0	504	399	
2	0	0	0	0	503	519	
3	0	0	0	0	500	590	
4	0	0	0	0	500	319	
5	0	0	0	0	504	392	
6	0	0	0	0	514	275	
7	0	0	0	0	514	601	
8	0	0	0	0	510	825	
9	0	0	0	0	519	627	
10	0	0	0	0	526	508	
11	0	0	0	0	519	322	
12	0	0	0	0	504	259	
13	0	0	0	0	487	0	
14	0	0	0	0	486	540	
15	0	0	0	0	524	877	
0	0	0	0	0	539	661	
1	0	0	0	0	525	737	
2	0	0	0	0	534	807	
3	0	0	0	0	535	447	
4	0	0	0	0	523	406	
5	0	0	0	0	514	473	
6	0	0	0	0	503	347	
7	0	0	0	0	489	817	
8	0	0	0	0	497	872	
9	0	0	0	0	508	464	
10	0	0	0	0	521	414	
11	0	0	0	0	524	363	
12	0	0	0	0	516	217	
13	0	0	0	0	514	451	
14	0	0	0	0	511	551	
15	0	0	0	0	507	557	
0	0	0	0	0	511	374	
1	0	0	0	0	513	441	
2	0	0	0	0	502	223	
3	0	0	0	0	500	504	
4	0	0	0	0	517	816	
5	0	0	0	0	517	533	
6	0	0	0	0	499	502	
7	0	0	0	0	489	509	
8	0	0	0	0	500	511	
9	0	0	0	0	528	966	
10	0	0	0	0	537	700	
11	0	0	0	0	524	393	
12	0	0	0	0	502	166	
13	0	0	0	0	484	0	
14	0	0	0	0	486	376	
15	0	0	0	0	510	884	
0	0	0	0	0	533	786	
1	0	0	0	0	545	772	
2	0	0	0	0	532	738	
3	0	0	0	0	524	322	
4	0	0	0	0	513	135	
5	0	0	0	0	504	337	
6	0	0	0	0	505	608	
7	0	0	0	0	511	799	
8	0	0	0	0	516	703	
9	0	0	0	0	516	466	
10	0	0	0	0	514	384	
11	0	0	0	0	509	222	
12	0	0	0	0	501	489	
13	0	0	0	0	498	669	
14	0	0	0	0	507	505	
15	0	0	0	0	515	466	
0	0	0	0	0	508	450	
1	0	0	0	0	501	455	
2	0	0	0	0	502	404	
3	0	0	0	0	501	609	
4	0	0	0	0	491	711	
5	0	0	0	0	496	653	
6	0	0	0	0	523	166	
7	0	0	0	0	534	331	
8	0	0	0	0	527	724	
9	0	0	0	0	522	691	
10	0	0	0	0	526	389	
11	0	0	0	0	515	438	
12	0	0	0	0	511	555	
13	0	0	0	0	511	547	
14	0	0	0	0	510	519	
15	0	0	0	0	511	481	
0	0	0	0	0	510	395	
1	0	0	0	0	509	500	
2	0	0	0	0	503	550	
3	0	0	0	0	505	466	
4	0	0	0	0	506	446	
5	0	0	0	0	499	490	
6	0	0	0	0	504	482	
7	0	0	0	0	511	573	
8	0	0	0	0	510	688	
9	0	0	0	0	515	487	
10	0	0	0	0	519	373	
11	0	0	0	0	513	257	
12	0	0	0	0	504	608	
13	0	0	0	0	507	901	
14	0	0	0	0	525	721	
15	0	0	0	0	537	279	
0	0	0	0	0	526	308	
1	0	0	0	0	521	557	
2	0	0	0	0	514	360	
3	0	0	0	0	503	280	
4	0	0	0	0	503	383	
5	0	0	0	0	508	590	
6	0	0	0	0	510	609	
7	0	0	0	0	523	827	
8	0	0	0	0	525	771	
9	0	0	0	0	527	431	
10	0	0	0	0	520	567	
11	0	0	0	0	502	653	
12	0	0	0	0	495	534	
13	0	0	0	0	508	385	
14	0	0	0	0	505	310	
15	0	0	0	0	503	123	
0	0	0	0	0	511	736	
1	0	0	0	0	517	705	
2	0	0	0	0	518	507	
3	0	0	0	0	515	416	
4	0	0	0	0	510	463	
5	0	0	0	0	505	529	
6	0	0	0	0	503	527	
7	0	0	0	0	500	413	
8	0	0	0	0	507	420	
9	0	0	0	0	520	590	
10	0	0	0	0	529	475	
11	0	0	0	0	517	397	
12	0	0	0	0	507	461	
13	0	0	0	0	500	655	
14	0	0	0	0	503	740	
15	0	0	0	0	509	475	
0	0	0	0	0	520	396	
1	0	0	0	0	520	504	
2	0	0	0	0	518	501	
3	0	0	0	0	515	483	
4	0	0	0	0	511	498	
5	0	0	0	0	508	509	
6	0	0	0	0	505	498	
7	0	0	0	0	505	477	
8	0	0	0	0	512	493	
9	0	0	0	0	514	527	
10	0	0	0	0	508	512	
11	0	0	0	0	500	479	
12	0	0	0	0	496	503	
13	0	0	0	0	495	612	
14	0	0	0	0	503	221	
15	0	0	0	0	529	340	
0	0	0	0	0	528	592	
1	0	0	0	0	543	908	
2	0	0	0	0	527	777	
3	0	0	0	0	519	387	
4	0	0	0	0	517	596	
5	0	0	0	0	512	451	
6	0	0	0	0	504	259	
7	0	0	0	0	518	353	
8	0	0	0	0	521	511	
9	0	0	0	0	505	592	
10	0	0	0	0	493	606	
11	0	0	0	0	497	702	
12	0	0	0	0	503	509	
13	0	0	0	0	507	438	
14	0	0	0	0	511	439	
15	0	0	0	0	510	466	
0	0	0	0	0	513	559	
1	0	0	0	0	511	555	
2	0	0	0	0	508	542	
3	0	0	0	0	507	404	
4	0	0	0	0	506	369	
5	0	0	0	0	516	524	
6	0	0	0	0	517	482	
7	0	0	0	0	513	455	
8	0	0	0	0	508	467	
9	0	0	0	0	511	496	
10	0	0	0	0	508	627	
11	0	0	0	0	510	602	
12	0	0	0	0	519	517	
13	0	0	0	0	517	519	
14	0	0	0	0	513	443	
15	0	0	0	0	513	464	
0	0	0	0	0	515	512	
1	0	0	0	0	519	523	
2	0	0	0	0	519	517	
3	0	0	0	0	516	502	
4	0	0	0	0	516	523	
5	0	0	0	0	513	536	
6	0	0	0	0	506	527	
7	0	0	0	0	507	588	
8	0	0	0	0	501	498	
9	0	0	0	0	506	450	
10	0	0	0	0	516	474	
11	0	0	0	0	512	616	
12	0	0	0	0	515	511	
13	0	0	0	0	518	476	
14	0	0	0	0	512	489	
15	0	0	0	0	509	542	
0	0	0	0	0	511	512	
1	0	0	0	0	511	353	
2	0	0	0	0	507	459	
3	0	0	0	0	503	387	
4	0	0	0	0	510	393	
5	0	0	0	0	508	604	
6	0	0	0	0	501	624	
7	0	0	0	0	498	614	
8	0	0	0	0	505	570	
9	0	0	0	0	505	623	
10	0	0	0	0	513	526	
11	0	0	0	0	523	88	
12	0	0	0	0	525	370	
13	0	0	0	0	524	599	
14	0	0	0	0	529	671	
15	0	0	0	0	519	743	
0	0	0	0	0	515	551	
1	0	0	0	0	509	485	
2	0	0	0	0	513	490	
3	0	0	0	0	513	502	
4	0	0	0	0	511	494	
5	0	0	0	0	508	476	
6	0	0	0	0	502	502	
7	0	0	0	0	503	452	
8	0	0	0	0	506	501	
9	0	0	0	0	517	515	
10	0	0	0	0	514	501	
11	0	0	0	0	514	493	
12	0	0	0	0	512	494	
13	0	0	0	0	513	499	
14	0	0	0	0	511	504	
15	0	0	0	0	511	510	
0	0	0	0	0	516	522	
1	0	0	0	0	507	537	
2	0	0	0	0	498	506	
3	0	0	0	0	507	455	
4	0	0	0	0	506	414	
5	0	0	0	0	507	312	
6	0	0	0	0	510	283	
7	0	0	0	0	510	504	
8	0	0	0	0	514	634	
9	0	0	0	0	526	922	
10	0	0	0	0	525	766	
11	0	0	0	0	521	545	
12	0	0	0	0	522	472	
13	0	0	0	0	520	478	
14	0	0	0	0	518	463	
15	0	0	0	0	517	413	
0	0	0	0	0	510	428	
1	0	0	0	0	504	512	
2	0	0	0	0	507	668	
3	0	0	0	0	503	659	
4	0	0	0	0	500	472	
5	0	0	0	0	504	382	
6	0	0	0	0	507	370	
7	0	0	0	0	509	393	
8	0	0	0	0	509	419	
9	0	0	0	0	510	566	
10	0	0	0	0	510	449	
11	0	0	0	0	503	427	
12	0	0	0	0	512	333	
13	0	0	0	0	515	627	
14	0	0	0	0	517	858	
15	0	0	0	0	522	629	
0	0	0	0	0	526	488	
1	0	0	0	0	513	461	
2	0	0	0	0	508	498	
3	0	0	0	0	509	499	
4	0	0	0	0	510	495	
5	0	0	0	0	510	495	
6	0	0	0	0	515	492	
7	0	0	0	0	512	476	
8	0	0	0	0	511	466	
9	0	0	0	0	513	487	
10	0	0	0	0	518	520	
11	0	0	0	0	510	611	
12	0	0	0	0	509	452	
13	0	0	0	0	511	445	
14	0	0	0	0	511	477	
15	0	0	0	0	510	498	
0	0	0	0	0	513	496	
1	0	0	0	0	517	577	
2	0	0	0	0	509	496	
3	0	0	0	0	505	441	
4	0	0	0	0	509	505	
5	0	0	0	0	516	562	
6	0	0	0	0	516	497	
7	0	0	0	0	514	515	
8	0	0	0	0	511	510	
9	0	0	0	0	509	524	
10	0	0	0	0	505	503	
11	0	0	0	0	505	498	
12	0	0	0	0	514	521	
13	0	0	0	0	516	524	
14	0	0	0	0	518	529	
15	0	0	0	0	517	529	
0	0	0	0	0	518	514	
1	0	0	0	0	512	462	
2	0	0	0	0	515	473	
3	0	0	0	0	512	534	
4	0	0	0	0	505	459	
5	0	0	0	0	504	403	
6	0	0	0	0	509	600	
7	0	0	0	0	511	636	
8	0	0	0	0	516	517	
9	0	0	0	0	511	558	
10	0	0	0	0	508	473	
11	0	0	0	0	505	428	
12	0	0	0	0	509	462	
13	0	0	0	0	510	484	
14	0	0	0	0	512	500	
15	0	0	0	0	513	505	
0	0	0	0	0	514	508	
1	0	0	0	0	514	511	
2	0	0	0	0	512	509	
3	0	0	0	0	513	506	
4	0	0	0	0	514	511	
5	0	0	0	0	516	528	
6	0	0	0	0	517	521	
7	0	0	0	0	513	510	
8	0	0	0	0	510	491	
9	0	0	0	0	508	495	
10	0	0	0	0	509	498	
11	0	0	0	0	513	507	
12	0	0	0	0	510	503	
13	0	0	0	0	516	463	
14	0	0	0	0	516	466	
15	0	0	0	0	520	529	
0	0	0	0	0	517	540	
1	0	0	0	0	508	649	
2	0	0	0	0	501	643	
3	0	0	0	0	502	425	
4	0	0	0	0	504	445	
5	0	0	0	0	508	497	
6	0	0	0	0	511	488	
7	0	0	0	0	515	519	
8	0	0	0	0	514	470	
9	0	0	0	0	514	455	
10	0	0	0	0	518	531	
11	0	0	0	0	514	445	
12	0	0	0	0	513	424	
13	0	0	0	0	518	467	
14	0	0	0	0	513	475	
15	0	0	0	0	513	469	
0	0	0	0	0	504	667	
1	0	0	0	0	496	543	
2	0	0	0	0	511	610	
3	0	0	0	0	520	616	
4	0	0	0	0	517	456	
5	0	0	0	0	518	419	
6	0	0	0	0	513	496	
7	0	0	0	0	513	526	
8	0	0	0	0	511	520	
9	0	0	0	0	512	500	
10	0	0	0	0	511	502	
11	0	0	0	0	511	502	
12	0	0	0	0	511	506	
13	0	0	0	0	510	507	
14	0	0	0	0	512	504	
15	0	0	0	0	513	505	
0	0	0	0	0	511	506	
1	0	0	0	0	512	506	
2	0	0	0	0	512	490	
3	0	0	0	0	508	484	
4	0	0	0	0	511	477	
5	0	0	0	0	512	486	
6	0	0	0	0	512	502	
7	0	0	0	0	513	582	
8	0	0	0	0	515	576	
9	0	0	0	0	512	510	
10	0	0	0	0	508	498	
11	0	0	0	0	511	500	
12	0	0	0	0	514	501	
13	0	0	0	0	514	504	
14	0	0	0	0	511	504	
15	0	0	0	0	515	505	
0	0	0	0	0	514	502	
1	0	0	0	0	513	502	
2	0	0	0	0	510	502	
3	0	0	0	0	507	504	
4	0	0	0	0	509	506	
5	0	0	0	0	515	533	
6	0	0	0	0	519	563	
7	0	0	0	0	518	567	
8	0	0	0	0	512	523	
9	0	0	0	0	500	392	
10	0	0	0	0	501	329	
11	0	0	0	0	497	405	
12	0	0	0	0	498	497	
13	0	0	0	0	507	604	
14	0	0	0	0	511	606	
15	0	0	0	0	517	585	
0	0	0	0	0	521	528	
1	0	0	0	0	527	357	
2	0	0	0	0	526	393	
3	0	0	0	0	519	648	
4	0	0	0	0	513	729	
5	0	0	0	0	512	553	
6	0	0	0	0	511	508	
7	0	0	0	0	513	441	
8	0	0	0	0	514	438	
9	0	0	0	0	510	503	
10	0	0	0	0	511	435	
11	0	0	0	0	509	368	
12	0	0	0	0	508	390	
13	0	0	0	0	509	390	
14	0	0	0	0	504	382	
15	0	0	0	0	503	797	
0	0	0	0	0	508	847	
1	0	0	0	0	514	551	
2	0	0	0	0	513	505	
3	0	0	0	0	515	416	
4	0	0	0	0	513	292	
5	0	0	0	0	513	668	
6	0	0	0	0	516	580	
7	0	0	0	0	520	389	
8	0	0	0	0	519	381	
9	0	0	0	0	515	525	
10	0	0	0	0	511	527	
11	0	0	0	0	512	761	
12	0	0	0	0	511	693	
13	0	0	0	0	508	527	
14	0	0	0	0	510	445	
15	0	0	0	0	513	450	
0	0	0	0	0	510	468	
1	0	0	0	0	510	475	
2	0	0	0	0	508	478	
3	0	0	0	0	506	480	
4	0	0	0	0	508	487	
5	0	0	0	0	508	508	
6	0	0	0	0	508	532	
7	0	0	0	0	504	521	
8	0	0	0	0	507	500	
9	0	0	0	0	511	480	
10	0	0	0	0	512	368	
11	0	0	0	0	518	347	
12	0	0	0	0	516	595	
13	0	0	0	0	527	657	
14	0	0	0	0	528	583	
15	0	0	0	0	511	555	
0	0	0	0	0	503	463	
1	0	0	0	0	499	481	
2	0	0	0	0	500	446	
3	0	0	0	0	505	337	
4	0	0	0	0	510	494	
5	0	0	0	0	513	550	
6	0	0	0	0	512	547	
7	0	0	0	0	511	527	
8	0	0	0	0	511	522	
9	0	0	0	0	514	523	
10	0	0	0	0	518	520	
11	0	0	0	0	516	519	
12	0	0	0	0	515	518	
13	0	0	0	0	516	515	
14	0	0	0	0	515	512	
15	0	0	0	0	516	516	
0	0	0	0	0	514	531	
1	0	0	0	0	511	534	
2	0	0	0	0	511	472	
3	0	0	0	0	508	456	
4	0	0	0	0	505	385	
5	0	0	0	0	511	302	
6	0	0	0	0	509	285	
7	0	0	0	0	510	807	
8	0	0	0	0	516	855	
9	0	0	0	0	514	559	
10	0	0	0	0	513	482	
11	0	0	0	0	510	572	
12	0	0	0	0	510	550	
13	0	0	0	0	513	510	
14	0	0	0	0	515	489	
15	0	0	0	0	513	485	
0	0	0	0	0	513	488	
1	0	0	0	0	513	488	
2	0	0	0	0	515	490	
3	0	0	0	0	519	490	
4	0	0	0	0	515	491	
5	0	0	0	0	517	490	
6	0	0	0	0	515	489	
7	0	0	0	0	514	492	
8	0	0	0	0	512	505	
9	0	0	0	0	513	507	
10	0	0	0	0	510	490	
11	0	0	0	0	512	485	
12	0	0	0	0	514	502	
13	0	0	0	0	512	548	
14	0	0	0	0	504	595	
15	0	0	0	0	500	579	
0	0	0	0	0	494	615	
1	0	0	0	0	503	452	
2	0	0	0	0	512	283	
3	0	0	0	0	513	349	
4	0	0	0	0	513	443	
5	0	0	0	0	511	498	
6	0	0	0	0	514	534	
7	0	0	0	0	518	588	
8	0	0	0	0	518	571	
9	0	0	0	0	522	530	
10	0	0	0	0	522	479	
11	0	0	0	0	513	492	
12	0	0	0	0	511	555	
13	0	0	0	0	511	546	
14	0	0	0	0	505	476	
15	0	0	0	0	508	429	
0	0	0	0	0	506	467	
1	0	0	0	0	505	546	
2	0	0	0	0	504	553	
3	0	0	0	0	508	319	
4	0	0	0	0	509	600	
5	0	0	0	0	514	572	
6	0	0	0	0	522	315	
7	0	0	0	0	518	223	
8	0	0	0	0	508	399	
9	0	0	0	0	511	930	
10	0	0	0	0	519	1022	
11	0	0	0	0	531	648	
12	0	0	0	0	523	327	
13	0	0	0	0	518	289	
14	0	0	0	0	513	370	
15	0	0	0	0	503	552	
0	0	0	0	0	503	486	
1	0	0	0	0	508	432	
2	0	0	0	0	510	412	
3	0	0	0	0	510	492	
4	0	0	0	0	507	502	
5	0	0	0	0	507	498	
6	0	0	0	0	508	499	
7	0	0	0	0	507	501	
8	0	0	0	0	508	501	
9	0	0	0	0	508	504	
10	0	0	0	0	508	512	
11	0	0	0	0	507	466	
12	0	0	0	0	510	459	
13	0	0	0	0	513	491	
14	0	0	0	0	513	511	
15	0	0	0	0	516	495	
0	0	0	0	0	513	508	
1	0	0	0	0	497	847	
2	0	0	0	0	498	631	
3	0	0	0	0	511	399	
4	0	0	0	0	520	400	
5	0	0	0	0	525	405	
6	0	0	0	0	520	478	
7	0	0	0	0	515	514	
8	0	0	0	0	509	517	
9	0	0	0	0	509	546	
10	0	0	0	0	512	516	
11	0	0	0	0	512	455	
12	0	0	0	0	511	427	
13	0	0	0	0	513	494	
14	0	0	0	0	516	513	
15	0	0	0	0	518	475	
0	0	0	0	0	513	458	
1	0	0	0	0	513	468	
2	0	0	0	0	509	485	
3	0	0	0	0	507	446	
4	0	0	0	0	510	392	
5	0	0	0	0	509	421	
6	0	0	0	0	511	440	
7	0	0	0	0	512	378	
8	0	0	0	0	506	392	
9	0	0	0	0	496	920	
10	0	0	0	0	494	878	
11	0	0	0	0	508	419	
12	0	0	0	0	508	712	
13	0	0	0	0	510	837	
14	0	0	0	0	521	647	
15	0	0	0	0	535	505	
0	0	0	0	0	539	548	
1	0	0	0	0	539	330	
2	0	0	0	0	527	335	
3	0	0	0	0	519	460	
4	0	0	0	0	518	451	
5	0	0	0	0	511	566	
6	0	0	0	0	508	627	
7	0	0	0	0	515	532	
8	0	0	0	0	511	472	
9	0	0	0	0	510	419	
10	0	0	0	0	507	415	
11	0	0	0	0	504	466	
12	0	0	0	0	503	486	
13	0	0	0	0	502	476	
14	0	0	0	0	503	468	
15	0	0	0	0	500	503	
0	0	0	0	0	501	526	
1	0	0	0	0	505	526	
2	0	0	0	0	505	521	
3	0	0	0	0	508	502	
4	0	0	0	0	502	428	
5	0	0	0	0	501	379	
6	0	0	0	0	498	359	
7	0	0	0	0	499	361	
8	0	0	0	0	503	348	
9	0	0	0	0	512	429	
10	0	0	0	0	522	535	
11	0	0	0	0	527	916	
12	0	0	0	0	531	1022	
13	0	0	0	0	529	681	
14	0	0	0	0	528	474	
15	0	0	0	0	523	427	
0	0	0	0	0	520	510	
1	0	0	0	0	517	503	
2	0	0	0	0	514	485	
3	0	0	0	0	511	472	
4	0	0	0	0	509	463	
5	0	0	0	0	507	460	
6	0	0	0	0	507	466	
7	0	0	0	0	506	482	
8	0	0	0	0	502	444	
9	0	0	0	0	500	334	
10	0	0	0	0	502	334	
11	0	0	0	0	504	325	
12	0	0	0	0	503	369	
13	0	0	0	0	501	393	
14	0	0	0	0	493	707	
15	0	0	0	0	486	1022	
0	0	0	0	0	510	980	
1	0	0	0	0	533	641	
2	0	0	0	0	550	440	
3	0	0	0	0	551	342	
4	0	0	0	0	544	361	
5	0	0	0	0	527	461	
6	0	0	0	0	519	474	
7	0	0	0	0	513	469	
8	0	0	0	0	507	475	
9	0	0	0	0	503	483	
10	0	0	0	0	507	499	
11	0	0	0	0	503	501	
12	0	0	0	0	505	492	
13	0	0	0	0	505	516	
14	0	0	0	0	504	488	
15	0	0	0	0	503	444	
0	0	0	0	0	500	452	
1	0	0	0	0	497	419	
2	0	0	0	0	496	407	
3	0	0	0	0	495	343	
4	0	0	0	0	486	495	
5	0	0	0	0	480	637	
6	0	0	0	0	486	335	
7	0	0	0	0	503	561	
8	0	0	0	0	529	934	
9	0	0	0	0	550	587	
10	0	0	0	0	554	668	
11	0	0	0	0	558	654	
12	0	0	0	0	561	521	
13	0	0	0	0	547	478	
14	0	0	0	0	534	463	
15	0	0	0	0	520	421	
0	0	0	0	0	503	428	
1	0	0	0	0	496	435	
2	0	0	0	0	496	422	
3	0	0	0	0	495	446	
4	0	0	0	0	493	448	
5	0	0	0	0	492	469	
6	0	0	0	0	496	456	
7	0	0	0	0	495	387	
8	0	0	0	0	497	503	
9	0	0	0	0	490	491	
10	0	0	0	0	484	658	
11	0	0	0	0	486	854	
12	0	0	0	0	495	451	
13	0	0	0	0	515	508	
14	0	0	0	0	523	660	
15	0	0	0	0	523	404	
0	0	0	0	0	527	584	
1	0	0	0	0	543	612	
2	0	0	0	0	548	522	
3	0	0	0	0	549	391	
4	0	0	0	0	533	395	
5	0	0	0	0	521	425	
6	0	0	0	0	514	442	
7	0	0	0	0	508	593	
8	0	0	0	0	505	739	
9	0	0	0	0	503	537	
10	0	0	0	0	497	439	
11	0	0	0	0	498	435	
12	0	0	0	0	502	493	
13	0	0	0	0	507	521	
14	0	0	0	0	510	487	
15	0	0	0	0	508	470	
0	0	0	0	0	507	475	
1	0	0	0	0	507	483	
2	0	0	0	0	507	488	
3	0	0	0	0	506	493	
4	0	0	0	0	504	517	
5	0	0	0	0	504	531	
6	0	0	0	0	502	449	
7	0	0	0	0	499	385	
8	0	0	0	0	499	308	
9	0	0	0	0	504	286	
10	0	0	0	0	506	352	
11	0	0	0	0	510	412	
12	0	0	0	0	516	770	
13	0	0	0	0	513	846	
14	0	0	0	0	519	1022	
15	0	0	0	0	525	947	
0	0	0	0	0	547	446	
1	0	0	0	0	551	291	
2	0	0	0	0	536	344	
3	0	0	0	0	520	381	
4	0	0	0	0	515	451	
5	0	0	0	0	511	449	
6	0	0	0	0	507	454	
7	0	0	0	0	500	465	
8	0	0	0	0	495	475	
9	0	0	0	0	494	514	
10	0	0	0	0	501	449	
11	0	0	0	0	509	442	
12	0	0	0	0	511	431	
13	0	0	0	0	509	435	
14	0	0	0	0	503	483	
15	0	0	0	0	494	418	
0	0	0	0	0	492	424	
1	0	0	0	0	491	593	
2	0	0	0	0	499	528	
3	0	0	0	0	497	799	
4	0	0	0	0	503	757	
5	0	0	0	0	530	360	
6	0	0	0	0	548	521	
7	0	0	0	0	559	618	
8	0	0	0	0	555	513	
9	0	0	0	0	547	479	
10	0	0	0	0	530	467	
11	0	0	0	0	515	481	
12	0	0	0	0	505	491	
13	0	0	0	0	500	489	
14	0	0	0	0	499	487	
15	0	0	0	0	499	487	
0	0	0	0	0	496	492	
1	0	0	0	0	495	495	
2	0	0	0	0	496	497	
3	0	0	0	0	500	450	
4	0	0	0	0	503	424	
5	0	0	0	0	507	412	
6	0	0	0	0	503	301	
7	0	0	0	0	503	256	
8	0	0	0	0	504	312	
9	0	0	0	0	501	611	
10	0	0	0	0	496	748	
11	0	0	0	0	488	711	
12	0	0	0	0	479	1022	
13	0	0	0	0	497	908	
14	0	0	0	0	543	484	
15	0	0	0	0	565	466	
0	0	0	0	0	554	511	
1	0	0	0	0	543	513	
2	0	0	0	0	535	374	
3	0	0	0	0	536	270	
4	0	0	0	0	525	368	
5	0	0	0	0	513	346	
6	0	0	0	0	505	329	
7	0	0	0	0	507	336	
8	0	0	0	0	502	310	
9	0	0	0	0	496	528	
10	0	0	0	0	490	697	
11	0	0	0	0	483	873	
12	0	0	0	0	485	645	
13	0	0	0	0	499	470	
14	0	0	0	0	511	478	
15	0	0	0	0	515	534	
0	0	0	0	0	518	467	
1	0	0	0	0	521	290	
2	0	0	0	0	526	403	
3	0	0	0	0	525	534	
4	0	0	0	0	515	511	
5	0	0	0	0	509	687	
6	0	0	0	0	512	1022	
7	0	0	0	0	518	798	
8	0	0	0	0	523	521	
9	0	0	0	0	525	479	
10	0	0	0	0	519	279	
11	0	0	0	0	514	332	
12	0	0	0	0	514	356	
13	0	0	0	0	507	333	
14	0	0	0	0	513	341	
15	0	0	0	0	510	417	
0	0	0	0	0	511	470	
1	0	0	0	0	507	479	
2	0	0	0	0	505	484	
3	0	0	0	0	504	506	
4	0	0	0	0	507	502	
5	0	0	0	0	507	511	
6	0	0	0	0	506	522	
7	0	0	0	0	504	516	
8	0	0	0	0	505	491	
9	0	0	0	0	508	494	
10	0	0	0	0	507	480	
11	0	0	0	0	506	460	
12	0	0	0	0	508	419	
13	0	0	0	0	507	441	
14	0	0	0	0	502	543	
15	0	0	0	0	505	525	
0	0	0	0	0	512	636	
1	0	0	0	0	516	631	
2	0	0	0	0	519	613	
3	0	0	0	0	524	754	
4	0	0	0	0	524	678	
5	0	0	0	0	529	513	
6	0	0	0	0	530	456	
7	0	0	0	0	521	441	
8	0	0	0	0	517	450	
9	0	0	0	0	515	459	
10	0	0	0	0	512	461	
11	0	0	0	0	510	467	
12	0	0	0	0	508	471	
13	0	0	0	0	507	479	
14	0	0	0	0	505	502	
15	0	0	0	0	494	505	
0	0	0	0	0	492	422	
1	0	0	0	0	495	423	
2	0	0	0	0	499	438	
3	0	0	0	0	502	425	
4	0	0	0	0	498	384	
5	0	0	0	0	492	627	
6	0	0	0	0	509	466	
7	0	0	0	0	531	438	
8	0	0	0	0	535	529	
9	0	0	0	0	529	559	
10	0	0	0	0	519	771	
11	0	0	0	0	523	582	
12	0	0	0	0	530	637	
13	0	0	0	0	532	601	
14	0	0	0	0	530	580	
15	0	0	0	0	519	754	
0	0	0	0	0	511	527	
1	0	0	0	0	506	330	
2	0	0	0	0	499	245	
3	0	0	0	0	495	210	
4	0	0	0	0	494	281	
5	0	0	0	0	487	332	
6	0	0	0	0	484	315	
7	0	0	0	0	491	433	
8	0	0	0	0	495	908	
9	0	0	0	0	503	936	
10	0	0	0	0	522	700	
11	0	0	0	0	547	523	
12	0	0	0	0	555	714	
13	0	0	0	0	551	705	
14	0	0	0	0	539	483	
15	0	0	0	0	524	203	
0	0	0	0	0	515	172	
1	0	0	0	0	511	216	
2	0	0	0	0	502	289	
3	0	0	0	0	486	370	
4	0	0	0	0	475	685	
5	0	0	0	0	475	953	
6	0	0	0	0	486	1022	
7	0	0	0	0	507	770	
8	0	0	0	0	532	420	
9	0	0	0	0	548	343	
10	0	0	0	0	550	291	
11	0	0	0	0	537	353	
12	0	0	0	0	522	344	
13	0	0	0	0	510	303	
14	0	0	0	0	501	361	
15	0	0	0	0	499	398	
0	0	0	0	0	496	527	
1	0	0	0	0	496	483	
2	0	0	0	0	494	782	
3	0	0	0	0	492	952	
4	0	0	0	0	501	712	
5	0	0	0	0	515	476	
6	0	0	0	0	524	410	
7	0	0	0	0	522	444	
8	0	0	0	0	518	447	
9	0	0	0	0	513	448	
10	0	0	0	0	511	455	
11	0	0	0	0	509	469	
12	0	0	0	0	508	483	
13	0	0	0	0	505	489	
14	0	0	0	0	506	496	
15	0	0	0	0	508	498	
0	0	0	0	0	509	500	
1	0	0	0	0	511	504	
2	0	0	0	0	510	505	
3	0	0	0	0	510	466	
4	0	0	0	0	513	452	
5	0	0	0	0	515	437	
6	0	0	0	0	510	411	
7	0	0	0	0	512	404	
8	0	0	0	0	505	416	
9	0	0	0	0	504	617	
10	0	0	0	0	502	691	
11	0	0	0	0	499	680	
12	0	0	0	0	506	550	
13	0	0	0	0	515	696	
14	0	0	0	0	522	705	
15	0	0	0	0	531	613	
0	0	0	0	0	535	519	
1	0	0	0	0	537	340	
2	0	0	0	0	534	351	
3	0	0	0	0	519	476	
4	0	0	0	0	511	480	
5	0	0	0	0	511	468	
6	0	0	0	0	510	471	
7	0	0	0	0	505	494	
8	0	0	0	0	502	496	
9	0	0	0	0	500	497	
10	0	0	0	0	497	422	
11	0	0	0	0	496	383	
12	0	0	0	0	496	384	
13	0	0	0	0	500	406	
14	0	0	0	0	498	539	
15	0	0	0	0	496	675	
0	0	0	0	0	494	895	
1	0	0	0	0	514	620	
2	0	0	0	0	535	408	
3	0	0	0	0	548	373	
4	0	0	0	0	543	367	
5	0	0	0	0	536	346	
6	0	0	0	0	522	443	
7	0	0	0	0	521	721	
8	0	0	0	0	519	711	
9	0	0	0	0	522	584	
10	0	0	0	0	516	494	
11	0	0	0	0	504	443	
12	0	0	0	0	497	371	
13	0	0	0	0	491	353	
14	0	0	0	0	491	354	
15	0	0	0	0	492	366	
0	0	0	0	0	496	410	
1	0	0	0	0	496	529	
2	0	0	0	0	491	910	
3	0	0	0	0	481	888	
4	0	0	0	0	493	592	
5	0	0	0	0	518	553	
6	0	0	0	0	543	435	
7	0	0	0	0	549	350	
8	0	0	0	0	541	625	
9	0	0	0	0	530	701	
10	0	0	0	0	526	448	
11	0	0	0	0	523	366	
12	0	0	0	0	520	359	
13	0	0	0	0	511	308	
14	0	0	0	0	503	273	
15	0	0	0	0	496	297	
0	0	0	0	0	492	312	
1	0	0	0	0	491	554	
2	0	0	0	0	487	876	
3	0	0	0	0	497	679	
4	0	0	0	0	507	960	
5	0	0	0	0	518	696	
6	0	0	0	0	540	533	
7	0	0	0	0	544	516	
8	0	0	0	0	539	372	
9	0	0	0	0	523	606	
10	0	0	0	0	518	431	
11	0	0	0	0	518	349	
12	0	0	0	0	514	463	
13	0	0	0	0	503	522	
14	0	0	0	0	503	480	
15	0	0	0	0	504	409	
0	0	0	0	0	506	406	
1	0	0	0	0	512	466	
2	0	0	0	0	510	492	
3	0	0	0	0	508	492	
4	0	0	0	0	508	495	
5	0	0	0	0	507	508	
6	0	0	0	0	504	532	
7	0	0	0	0	502	545	
8	0	0	0	0	497	534	
9	0	0	0	0	494	531	
10	0	0	0	0	498	514	
11	0	0	0	0	501	461	
12	0	0	0	0	501	397	
13	0	0	0	0	500	432	
14	0	0	0	0	506	503	
15	0	0	0	0	519	399	
0	0	0	0	0	520	435	
1	0	0	0	0	529	664	
2	0	0	0	0	536	812	
3	0	0	0	0	534	639	
4	0	0	0	0	527	499	
5	0	0	0	0	526	480	
6	0	0	0	0	523	497	
7	0	0	0	0	515	498	
8	0	0	0	0	513	491	
9	0	0	0	0	512	489	
10	0	0	0	0	508	484	
11	0	0	0	0	507	489	
12	0	0	0	0	507	496	
13	0	0	0	0	506	498	
14	0	0	0	0	504	497	
15	0	0	0	0	502	500	
0	0	0	0	0	502	497	
1	0	0	0	0	494	416	
2	0	0	0	0	495	297	
3	0	0	0	0	501	341	
4	0	0	0	0	506	385	
5	0	0	0	0	506	363	
6	0	0	0	0	506	308	
7	0	0	0	0	497	754	
8	0	0	0	0	483	1022	
9	0	0	0	0	502	741	
10	0	0	0	0	535	220	
11	0	0	0	0	556	348	
12	0	0	0	0	555	650	
13	0	0	0	0	546	548	
14	0	0	0	0	545	452	
15	0	0	0	0	534	441	
0	0	0	0	0	527	433	
1	0	0	0	0	517	421	
2	0	0	0	0	507	443	
3	0	0	0	0	500	496	
4	0	0	0	0	496	477	
5	0	0	0	0	499	476	
6	0	0	0	0	501	479	
7	0	0	0	0	499	482	
8	0	0	0	0	497	454	
9	0	0	0	0	492	455	
10	0	0	0	0	493	475	
11	0	0	0	0	492	488	
12	0	0	0	0	487	464	
13	0	0	0	0	476	574	
14	0	0	0	0	481	627	
15	0	0	0	0	504	467	
0	0	0	0	0	526	465	
1	0	0	0	0	534	450	
2	0	0	0	0	537	491	
3	0	0	0	0	540	495	
4	0	0	0	0	544	470	
5	0	0	0	0	544	384	
6	0	0	0	0	543	542	
7	0	0	0	0	536	565	
8	0	0	0	0	521	705	
9	0	0	0	0	509	711	
10	0	0	0	0	499	585	
11	0	0	0	0	495	432	
12	0	0	0	0	501	423	
13	0	0	0	0	506	415	
14	0	0	0	0	502	493	
15	0	0	0	0	502	540	
0	0	0	0	0	500	448	
1	0	0	0	0	501	476	
2	0	0	0	0	503	376	
3	0	0	0	0	507	298	
4	0	0	0	0	506	359	
5	0	0	0	0	504	716	
6	0	0	0	0	503	679	
7	0	0	0	0	501	822	
8	0	0	0	0	498	1022	
9	0	0	0	0	500	707	
10	0	0	0	0	526	255	
11	0	0	0	0	550	279	
12	0	0	0	0	552	373	
13	0	0	0	0	535	415	
14	0	0	0	0	521	432	
15	0	0	0	0	512	447	
0	0	0	0	0	506	464	
1	0	0	0	0	508	452	
2	0	0	0	0	504	445	
3	0	0	0	0	506	472	
4	0	0	0	0	503	498	
5	0	0	0	0	506	505	
6	0	0	0	0	510	509	
7	0	0	0	0	507	509	
8	0	0	0	0	505	508	
9	0	0	0	0	508	507	
10	0	0	0	0	505	515	
11	0	0	0	0	511	523	
12	0	0	0	0	507	510	
13	0	0	0	0	505	526	
14	0	0	0	0	508	526	
15	0	0	0	0	509	513	
0	0	0	0	0	507	518	
1	0	0	0	0	504	548	
2	0	0	0	0	499	553	
3	0	0	0	0	509	470	
4	0	0	0	0	515	401	
5	0	0	0	0	520	374	
6	0	0	0	0	523	395	
7	0	0	0	0	525	434	
8	0	0	0	0	522	488	
9	0	0	0	0	515	676	
10	0	0	0	0	503	743	
11	0	0	0	0	507	561	
12	0	0	0	0	514	465	
13	0	0	0	0	521	556	
14	0	0	0	0	515	420	
15	0	0	0	0	515	228	
0	0	0	0	0	516	215	
1	0	0	0	0	512	292	
2	0	0	0	0	506	328	
3	0	0	0	0	499	454	
4	0	0	0	0	486	806	
5	0	0	0	0	478	1022	
6	0	0	0	0	498	1022	
7	0	0	0	0	527	504	
8	0	0	0	0	555	198	
9	0	0	0	0	565	312	
10	0	0	0	0	561	368	
11	0	0	0	0	545	358	
12	0	0	0	0	525	369	
13	0	0	0	0	501	440	
14	0	0	0	0	487	692	
15	0	0	0	0	485	513	
0	0	0	0	0	491	329	
1	0	0	0	0	497	345	
2	0	0	0	0	499	400	
3	0	0	0	0	502	410	
4	0	0	0	0	505	443	
5	0	0	0	0	509	557	
6	0	0	0	0	511	654	
7	0	0	0	0	508	729	
8	0	0	0	0	507	859	
9	0	0	0	0	511	539	
10	0	0	0	0	519	476	
11	0	0	0	0	523	463	
12	0	0	0	0	519	429	
13	0	0	0	0	514	396	
14	0	0	0	0	507	365	
15	0	0	0	0	508	392	
0	0	0	0	0	508	436	
1	0	0	0	0	506	497	
2	0	0	0	0	503	512	
3	0	0	0	0	504	569	
4	0	0	0	0	502	775	
5	0	0	0	0	502	688	
6	0	0	0	0	507	499	
7	0	0	0	0	513	263	
8	0	0	0	0	523	176	
9	0	0	0	0	526	278	
10	0	0	0	0	523	260	
11	0	0	0	0	514	397	
12	0	0	0	0	508	675	
13	0	0	0	0	507	860	
14	0	0	0	0	504	716	
15	0	0	0	0	504	673	
0	0	0	0	0	513	683	
1	0	0	0	0	534	535	
2	0	0	0	0	537	454	
3	0	0	0	0	528	411	
4	0	0	0	0	521	503	
5	0	0	0	0	514	665	
6	0	0	0	0	517	522	
7	0	0	0	0	521	596	
8	0	0	0	0	522	541	
9	0	0	0	0	509	404	
10	0	0	0	0	500	335	
11	0	0	0	0	497	341	
12	0	0	0	0	498	321	
13	0	0	0	0	496	385	
14	0	0	0	0	496	499	
15	0	0	0	0	499	514	
0	0	0	0	0	509	440	
1	0	0	0	0	511	463	
2	0	0	0	0	514	897	
3	0	0	0	0	508	1022	
4	0	0	0	0	504	761	
5	0	0	0	0	518	359	
6	0	0	0	0	530	344	
7	0	0	0	0	534	389	
8	0	0	0	0	532	395	
9	0	0	0	0	524	409	
10	0	0	0	0	515	455	
11	0	0	0	0	508	474	
12	0	0	0	0	501	476	
13	0	0	0	0	500	500	
14	0	0	0	0	493	481	
15	0	0	0	0	484	399	
0	0	0	0	0	483	297	
1	0	0	0	0	487	176	
2	0	0	0	0	485	208	
3	0	0	0	0	483	428	
4	0	0	0	0	476	538	
5	0	0	0	0	496	813	
6	0	0	0	0	531	956	
7	0	0	0	0	563	698	
8	0	0	0	0	573	519	
9	0	0	0	0	561	710	
10	0	0	0	0	551	937	
11	0	0	0	0	542	747	
12	0	0	0	0	531	523	
13	0	0	0	0	531	376	
14	0	0	0	0	529	348	
15	0	0	0	0	523	339	
0	0	0	0	0	509	295	
1	0	0	0	0	494	275	
2	0	0	0	0	483	300	
3	0	0	0	0	477	286	
4	0	0	0	0	476	194	
5	0	0	0	0	481	200	
6	0	0	0	0	484	440	
7	0	0	0	0	479	971	
8	0	0	0	0	479	875	
9	0	0	0	0	486	804	
10	0	0	0	0	503	1022	
11	0	0	0	0	525	880	
12	0	0	0	0	567	42	
13	0	0	0	0	585	177	
14	0	0	0	0	569	443	
15	0	0	0	0	552	355	
0	0	0	0	0	531	309	
1	0	0	0	0	514	399	
2	0	0	0	0	495	472	
3	0	0	0	0	480	356	
4	0	0	0	0	472	322	
5	0	0	0	0	472	576	
6	0	0	0	0	477	718	
7	0	0	0	0	483	703	
8	0	0	0	0	488	810	
9	0	0	0	0	495	702	
10	0	0	0	0	501	1019	
11	0	0	0	0	517	829	
12	0	0	0	0	546	550	
13	0	0	0	0	561	542	
14	0	0	0	0	568	352	
15	0	0	0	0	555	207	
0	0	0	0	0	531	192	
1	0	0	0	0	513	210	
2	0	0	0	0	497	323	
3	0	0	0	0	486	317	
4	0	0	0	0	486	387	
5	0	0	0	0	488	329	
6	0	0	0	0	496	378	
7	0	0	0	0	506	712	
8	0	0	0	0	515	603	
9	0	0	0	0	512	453	
10	0	0	0	0	517	483	
11	0	0	0	0	511	560	
12	0	0	0	0	510	704	
13	0	0	0	0	515	818	
14	0	0	0	0	517	575	
15	0	0	0	0	514	514	
0	0	0	0	0	509	432	
1	0	0	0	0	515	324	
2	0	0	0	0	515	323	
3	0	0	0	0	503	493	
4	0	0	0	0	497	599	
5	0	0	0	0	499	548	
6	0	0	0	0	507	647	
7	0	0	0	0	505	709	
8	0	0	0	0	510	560	
9	0	0	0	0	528	477	
10	0	0	0	0	536	425	
11	0	0	0	0	542	552	
12	0	0	0	0	531	597	
13	0	0	0	0	522	476	
14	0	0	0	0	515	409	
15	0	0	0	0	503	414	
0	0	0	0	0	497	530	
1	0	0	0	0	489	581	
2	0	0	0	0	491	438	
3	0	0	0	0	500	113	
4	0	0	0	0	508	363	
5	0	0	0	0	516	581	
6	0	0	0	0	516	504	
7	0	0	0	0	517	348	
8	0	0	0	0	514	470	
9	0	0	0	0	507	522	
10	0	0	0	0	502	430	
11	0	0	0	0	501	536	
12	0	0	0	0	504	707	
13	0	0	0	0	502	566	
14	0	0	0	0	504	678	
15	0	0	0	0	502	1022	
0	0	0	0	0	518	725	
1	0	0	0	0	542	313	
2	0	0	0	0	552	389	
3	0	0	0	0	550	450	
4	0	0	0	0	532	361	
5	0	0	0	0	515	374	
6	0	0	0	0	498	400	
7	0	0	0	0	494	284	
8	0	0	0	0	498	283	
9	0	0	0	0	504	542	
10	0	0	0	0	504	547	
11	0	0	0	0	502	508	
12	0	0	0	0	499	598	
13	0	0	0	0	491	864	
14	0	0	0	0	487	838	
15	0	0	0	0	490	635	
0	0	0	0	0	510	390	
1	0	0	0	0	530	350	
2	0	0	0	0	536	502	
3	0	0	0	0	539	648	
4	0	0	0	0	538	617	
5	0	0	0	0	531	441	
6	0	0	0	0	529	358	
7	0	0	0	0	529	402	
8	0	0	0	0	525	416	
9	0	0	0	0	511	389	
10	0	0	0	0	496	357	
11	0	0	0	0	489	320	
12	0	0	0	0	479	304	
13	0	0	0	0	472	203	
14	0	0	0	0	471	209	
15	0	0	0	0	469	724	
0	0	0	0	0	483	894	
1	0	0	0	0	505	641	
2	0	0	0	0	536	864	
3	0	0	0	0	541	1022	
4	0	0	0	0	548	826	
5	0	0	0	0	560	372	
6	0	0	0	0	564	460	
7	0	0	0	0	560	418	
8	0	0	0	0	544	373	
9	0	0	0	0	524	263	
10	0	0	0	0	510	238	
11	0	0	0	0	494	183	
12	0	0	0	0	486	185	
13	0	0	0	0	471	183	
14	0	0	0	0	471	230	
15	0	0	0	0	479	360	
0	0	0	0	0	484	428	
1	0	0	0	0	486	859	
2	0	0	0	0	484	1022	
3	0	0	0	0	499	1022	
4	0	0	0	0	525	548	
5	0	0	0	0	556	535	
6	0	0	0	0	581	547	
7	0	0	0	0	575	390	
8	0	0	0	0	551	368	
9	0	0	0	0	526	304	
10	0	0	0	0	511	262	
11	0	0	0	0	499	305	
12	0	0	0	0	483	359	
13	0	0	0	0	477	412	
14	0	0	0	0	480	480	
15	0	0	0	0	487	465	
0	0	0	0	0	489	556	
1	0	0	0	0	493	568	
2	0	0	0	0	501	462	
3	0	0	0	0	515	551	
4	0	0	0	0	529	525	
5	0	0	0	0	526	511	
6	0	0	0	0	520	529	
7	0	0	0	0	514	637	
8	0	0	0	0	517	723	
9	0	0	0	0	521	634	
10	0	0	0	0	523	502	
11	0	0	0	0	522	460	
12	0	0	0	0	513	430	
13	0	0	0	0	499	345	
14	0	0	0	0	489	232	
15	0	0	0	0	492	311	
0	0	0	0	0	497	536	
1	0	0	0	0	496	535	
2	0	0	0	0	496	481	
3	0	0	0	0	498	1022	
4	0	0	0	0	508	1022	
5	0	0	0	0	525	504	
6	0	0	0	0	541	425	
7	0	0	0	0	540	291	
8	0	0	0	0	537	212	
9	0	0	0	0	526	526	
10	0	0	0	0	516	451	
11	0	0	0	0	507	605	
12	0	0	0	0	499	576	
13	0	0	0	0	512	265	
14	0	0	0	0	527	379	
15	0	0	0	0	529	377	
0	0	0	0	0	523	323	
1	0	0	0	0	507	422	
2	0	0	0	0	495	584	
3	0	0	0	0	485	550	
4	0	0	0	0	474	335	
5	0	0	0	0	478	329	
6	0	0	0	0	500	326	
7	0	0	0	0	514	435	
8	0	0	0	0	521	455	
9	0	0	0	0	531	696	
10	0	0	0	0	528	1010	
11	0	0	0	0	527	1022	
12	0	0	0	0	522	1022	
13	0	0	0	0	528	804	
14	0	0	0	0	535	529	
15	0	0	0	0	532	351	
0	0	0	0	0	523	388	
1	0	0	0	0	511	361	
2	0	0	0	0	499	357	
3	0	0	0	0	487	325	
4	0	0	0	0	484	224	
5	0	0	0	0	487	264	
6	0	0	0	0	493	385	
7	0	0	0	0	490	632	
8	0	0	0	0	498	688	
9	0	0	0	0	517	659	
10	0	0	0	0	524	473	
11	0	0	0	0	529	464	
12	0	0	0	0	529	479	
13	0	0	0	0	537	496	
14	0	0	0	0	531	482	
15	0	0	0	0	520	444	
0	0	0	0	0	513	460	
1	0	0	0	0	512	534	
2	0	0	0	0	505	503	
3	0	0	0	0	502	437	
4	0	0	0	0	492	411	
5	0	0	0	0	488	314	
6	0	0	0	0	493	199	
7	0	0	0	0	500	420	
8	0	0	0	0	499	566	
9	0	0	0	0	499	563	
10	0	0	0	0	497	813	
11	0	0	0	0	497	1022	
12	0	0	0	0	508	869	
13	0	0	0	0	530	540	
14	0	0	0	0	547	493	
15	0	0	0	0	554	535	
0	0	0	0	0	554	678	
1	0	0	0	0	544	440	
2	0	0	0	0	531	94	
3	0	0	0	0	521	153	
4	0	0	0	0	511	385	
5	0	0	0	0	509	410	
6	0	0	0	0	503	635	
7	0	0	0	0	497	698	
8	0	0	0	0	501	703	
9	0	0	0	0	501	551	
10	0	0	0	0	500	471	
11	0	0	0	0	494	492	
12	0	0	0	0	489	445	
13	0	0	0	0	496	464	
14	0	0	0	0	508	512	
15	0	0	0	0	517	455	
0	0	0	0	0	524	385	
1	0	0	0	0	524	403	
2	0	0	0	0	515	484	
3	0	0	0	0	509	477	
4	0	0	0	0	498	387	
5	0	0	0	0	492	427	
6	0	0	0	0	491	551	
7	0	0	0	0	493	470	
8	0	0	0	0	501	648	
9	0	0	0	0	507	745	
10	0	0	0	0	519	593	
11	0	0	0	0	529	515	
12	0	0	0	0	537	474	
13	0	0	0	0	532	547	
14	0	0	0	0	527	439	
15	0	0	0	0	515	728	
0	0	0	0	0	523	767	
1	0	0	0	0	533	604	
2	0	0	0	0	531	254	
3	0	0	0	0	525	196	
4	0	0	0	0	519	261	
5	0	0	0	0	510	348	
6	0	0	0	0	498	451	
7	0	0	0	0	480	936	
8	0	0	0	0	483	1016	
9	0	0	0	0	493	514	
10	0	0	0	0	511	282	
11	0	0	0	0	516	430	
12	0	0	0	0	512	445	
13	0	0	0	0	507	369	
14	0	0	0	0	504	497	
15	0	0	0	0	515	673	
0	0	0	0	0	516	686	
1	0	0	0	0	509	644	
2	0	0	0	0	496	179	
3	0	0	0	0	505	298	
4	0	0	0	0	514	494	
5	0	0	0	0	519	382	
6	0	0	0	0	514	247	
7	0	0	0	0	507	1022	
8	0	0	0	0	513	1022	
9	0	0	0	0	537	561	
10	0	0	0	0	539	390	
11	0	0	0	0	527	291	
12	0	0	0	0	531	291	
13	0	0	0	0	528	344	
14	0	0	0	0	512	312	
15	0	0	0	0	501	321	
0	0	0	0	0	501	621	
1	0	0	0	0	493	641	
2	0	0	0	0	483	486	
3	0	0	0	0	470	470	
4	0	0	0	0	474	735	
5	0	0	0	0	502	544	
6	0	0	0	0	524	389	
7	0	0	0	0	536	644	
8	0	0	0	0	542	816	
9	0	0	0	0	545	624	
10	0	0	0	0	540	375	
11	0	0	0	0	533	348	
12	0	0	0	0	513	363	
13	0	0	0	0	500	331	
14	0	0	0	0	495	332	
15	0	0	0	0	493	345	
0	0	0	0	0	490	352	
1	0	0	0	0	491	483	
2	0	0	0	0	491	544	
3	0	0	0	0	499	685	
4	0	0	0	0	511	687	
5	0	0	0	0	515	771	
6	0	0	0	0	519	728	
7	0	0	0	0	527	640	
8	0	0	0	0	529	323	
9	0	0	0	0	523	284	
10	0	0	0	0	524	377	
11	0	0	0	0	512	396	
12	0	0	0	0	495	369	
13	0	0	0	0	496	546	
14	0	0	0	0	502	1022	
15	0	0	0	0	512	776	
0	0	0	0	0	527	507	
1	0	0	0	0	531	480	
2	0	0	0	0	526	412	
3	0	0	0	0	523	402	
4	0	0	0	0	515	417	
5	0	0	0	0	505	422	
6	0	0	0	0	497	354	
7	0	0	0	0	493	319	
8	0	0	0	0	487	297	
9	0	0	0	0	484	294	
10	0	0	0	0	479	464	
11	0	0	0	0	481	956	
12	0	0	0	0	499	1000	
13	0	0	0	0	511	854	
14	0	0	0	0	528	276	
15	0	0	0	0	549	439	
0	0	0	0	0	557	522	
1	0	0	0	0	556	414	
2	0	0	0	0	542	291	
3	0	0	0	0	526	230	
4	0	0	0	0	512	182	
5	0	0	0	0	504	155	
6	0	0	0	0	496	269	
7	0	0	0	0	487	581	
8	0	0	0	0	484	1022	
9	0	0	0	0	497	1022	
10	0	0	0	0	516	750	
11	0	0	0	0	530	573	
12	0	0	0	0	527	511	
13	0	0	0	0	513	527	
14	0	0	0	0	492	455	
15	0	0	0	0	494	360	
0	0	0	0	0	499	421	
1	0	0	0	0	504	831	
2	0	0	0	0	514	707	
3	0	0	0	0	516	428	
4	0	0	0	0	524	339	
5	0	0	0	0	524	227	
6	0	0	0	0	513	270	
7	0	0	0	0	513	563	
8	0	0	0	0	506	985	
9	0	0	0	0	513	792	
10	0	0	0	0	525	513	
11	0	0	0	0	530	400	
12	0	0	0	0	516	277	
13	0	0	0	0	512	269	
14	0	0	0	0	507	425	
15	0	0	0	0	508	405	
0	0	0	0	0	503	323	
1	0	0	0	0	509	482	
2	0	0	0	0	507	542	
3	0	0	0	0	508	455	
4	0	0	0	0	507	374	
5	0	0	0	0	504	462	
6	0	0	0	0	509	513	
7	0	0	0	0	510	464	
8	0	0	0	0	513	634	
9	0	0	0	0	519	912	
10	0	0	0	0	518	724	
11	0	0	0	0	521	524	
12	0	0	0	0	518	399	
13	0	0	0	0	506	476	
14	0	0	0	0	496	496	
15	0	0	0	0	496	313	
0	0	0	0	0	501	411	
1	0	0	0	0	506	847	
2	0	0	0	0	520	680	
3	0	0	0	0	531	529	
4	0	0	0	0	531	475	
5	0	0	0	0	525	303	
6	0	0	0	0	520	317	
7	0	0	0	0	509	262	
8	0	0	0	0	501	245	
9	0	0	0	0	495	468	
10	0	0	0	0	497	918	
11	0	0	0	0	500	1022	
12	0	0	0	0	513	654	
13	0	0	0	0	519	414	
14	0	0	0	0	509	477	
15	0	0	0	0	515	530	
0	0	0	0	0	531	568	
1	0	0	0	0	536	584	
2	0	0	0	0	531	430	
3	0	0	0	0	528	331	
4	0	0	0	0	520	374	
5	0	0	0	0	509	382	
6	0	0	0	0	502	387	
7	0	0	0	0	496	494	
8	0	0	0	0	495	641	
9	0	0	0	0	502	509	
10	0	0	0	0	502	455	
11	0	0	0	0	505	392	
12	0	0	0	0	502	305	
13	0	0	0	0	499	359	
14	0	0	0	0	499	251	
15	0	0	0	0	499	91	
0	0	0	0	0	493	507	
1	0	0	0	0	490	987	
2	0	0	0	0	500	909	
3	0	0	0	0	525	868	
4	0	0	0	0	552	1022	
5	0	0	0	0	557	841	
6	0	0	0	0	546	568	
7	0	0	0	0	531	381	
8	0	0	0	0	518	336	
9	0	0	0	0	507	339	
10	0	0	0	0	499	281	
11	0	0	0	0	494	363	
12	0	0	0	0	495	301	
13	0	0	0	0	499	232	
14	0	0	0	0	502	766	
15	0	0	0	0	515	685	
0	0	0	0	0	524	510	
1	0	0	0	0	526	545	
2	0	0	0	0	520	549	
3	0	0	0	0	510	463	
4	0	0	0	0	503	439	
5	0	0	0	0	499	456	
6	0	0	0	0	492	471	
7	0	0	0	0	495	534	
8	0	0	0	0	491	386	
9	0	0	0	0	500	216	
10	0	0	0	0	516	327	
11	0	0	0	0	524	336	
12	0	0	0	0	516	274	
13	0	0	0	0	508	566	
14	0	0	0	0	496	1022	
15	0	0	0	0	503	1022	
0	0	0	0	0	524	760	
1	0	0	0	0	546	589	
2	0	0	0	0	547	349	
3	0	0	0	0	536	347	
4	0	0	0	0	514	536	
5	0	0	0	0	520	520	
6	0	0	0	0	527	610	
7	0	0	0	0	514	499	
8	0	0	0	0	503	434	
9	0	0	0	0	509	399	
10	0	0	0	0	514	381	
11	0	0	0	0	510	364	
12	0	0	0	0	503	413	
13	0	0	0	0	497	434	
14	0	0	0	0	489	438	
15	0	0	0	0	484	440	
0	0	0	0	0	482	493	
1	0	0	0	0	491	383	
2	0	0	0	0	504	514	
3	0	0	0	0	509	611	
4	0	0	0	0	502	546	
5	0	0	0	0	510	379	
6	0	0	0	0	522	344	
7	0	0	0	0	524	404	
8	0	0	0	0	525	499	
9	0	0	0	0	524	975	
10	0	0	0	0	519	1022	
11	0	0	0	0	520	568	
12	0	0	0	0	529	387	
13	0	0	0	0	539	544	
14	0	0	0	0	532	489	
15	0	0	0	0	523	409	
0	0	0	0	0	514	461	
1	0	0	0	0	514	437	
2	0	0	0	0	512	455	
3	0	0	0	0	511	476	
4	0	0	0	0	506	422	
5	0	0	0	0	502	382	
6	0	0	0	0	491	370	
7	0	0	0	0	481	465	
8	0	0	0	0	486	408	
9	0	0	0	0	500	572	
10	0	0	0	0	506	476	
11	0	0	0	0	507	275	
12	0	0	0	0	507	552	
13	0	0	0	0	515	1022	
14	0	0	0	0	525	916	
15	0	0	0	0	534	683	
0	0	0	0	0	538	515	
1	0	0	0	0	526	316	
2	0	0	0	0	509	255	
3	0	0	0	0	505	231	
4	0	0	0	0	500	366	
5	0	0	0	0	499	509	
6	0	0	0	0	504	566	
7	0	0	0	0	511	696	
8	0	0	0	0	509	645	
9	0	0	0	0	514	361	
10	0	0	0	0	519	305	
11	0	0	0	0	515	83	
12	0	0	0	0	504	271	
13	0	0	0	0	503	975	
14	0	0	0	0	517	1022	
15	0	0	0	0	526	673	
0	0	0	0	0	525	443	
1	0	0	0	0	522	451	
2	0	0	0	0	519	499	
3	0	0	0	0	513	434	
4	0	0	0	0	509	519	
5	0	0	0	0	504	524	
6	0	0	0	0	498	427	
7	0	0	0	0	495	462	
8	0	0	0	0	500	299	
9	0	0	0	0	500	206	
10	0	0	0	0	500	572	
11	0	0	0	0	510	688	
12	0	0	0	0	520	542	
13	0	0	0	0	522	324	
14	0	0	0	0	511	369	
15	0	0	0	0	503	437	
0	0	0	0	0	495	357	
1	0	0	0	0	507	766	
2	0	0	0	0	531	1022	
3	0	0	0	0	545	814	
4	0	0	0	0	540	508	
5	0	0	0	0	531	311	
6	0	0	0	0	514	228	
7	0	0	0	0	499	216	
8	0	0	0	0	489	619	
9	0	0	0	0	495	470	
10	0	0	0	0	504	487	
11	0	0	0	0	505	519	
12	0	0	0	0	519	696	
13	0	0	0	0	524	714	
14	0	0	0	0	522	750	
15	0	0	0	0	519	580	
0	0	0	0	0	515	673	
1	0	0	0	0	516	514	
2	0	0	0	0	504	88	
3	0	0	0	0	495	549	
4	0	0	0	0	509	330	
5	0	0	0	0	523	480	
6	0	0	0	0	534	532	
7	0	0	0	0	527	387	
8	0	0	0	0	507	426	
9	0	0	0	0	499	265	
10	0	0	0	0	503	279	
11	0	0	0	0	495	525	
12	0	0	0	0	491	438	
13	0	0	0	0	492	896	
14	0	0	0	0	517	1020	
15	0	0	0	0	535	753	
0	0	0	0	0	538	583	
1	0	0	0	0	530	455	
2	0	0	0	0	518	371	
3	0	0	0	0	508	312	
4	0	0	0	0	503	311	
5	0	0	0	0	501	251	
6	0	0	0	0	495	527	
7	0	0	0	0	494	658	
8	0	0	0	0	505	727	
9	0	0	0	0	521	539	
10	0	0	0	0	516	155	
11	0	0	0	0	507	440	
12	0	0	0	0	510	664	
13	0	0	0	0	509	628	
14	0	0	0	0	512	543	
15	0	0	0	0	511	430	
0	0	0	0	0	513	520	
1	0	0	0	0	515	486	
2	0	0	0	0	507	452	
3	0	0	0	0	507	374	
4	0	0	0	0	520	502	
5	0	0	0	0	524	568	
6	0	0	0	0	519	409	
7	0	0	0	0	511	376	
8	0	0	0	0	496	317	
9	0	0	0	0	487	419	
10	0	0	0	0	480	530	
11	0	0	0	0	503	705	
12	0	0	0	0	531	888	
13	0	0	0	0	535	846	
14	0	0	0	0	525	701	
15	0	0	0	0	537	587	
0	0	0	0	0	553	358	
1	0	0	0	0	541	474	
2	0	0	0	0	516	476	
3	0	0	0	0	502	501	
4	0	0	0	0	498	535	
5	0	0	0	0	498	500	
6	0	0	0	0	489	457	
7	0	0	0	0	487	396	
8	0	0	0	0	488	269	
9	0	0	0	0	493	229	
10	0	0	0	0	494	515	
11	0	0	0	0	511	441	
12	0	0	0	0	529	899	
13	0	0	0	0	554	754	
14	0	0	0	0	548	640	
15	0	0	0	0	520	517	
0	0	0	0	0	513	242	
1	0	0	0	0	512	348	
2	0	0	0	0	504	203	
3	0	0	0	0	492	376	
4	0	0	0	0	490	615	
5	0	0	0	0	508	819	
6	0	0	0	0	534	736	
7	0	0	0	0	539	539	
8	0	0	0	0	527	360	
9	0	0	0	0	506	412	
10	0	0	0	0	499	507	
11	0	0	0	0	494	581	
12	0	0	0	0	490	697	
13	0	0	0	0	494	316	
14	0	0	0	0	503	404	
15	0	0	0	0	516	428	
0	0	0	0	0	524	592	
1	0	0	0	0	531	569	
2	0	0	0	0	523	364	
3	0	0	0	0	510	466	
4	0	0	0	0	502	607	
5	0	0	0	0	505	590	
6	0	0	0	0	505	510	
7	0	0	0	0	508	490	
8	0	0	0	0	514	608	
9	0	0	0	0	524	481	
10	0	0	0	0	522	412	
11	0	0	0	0	509	539	
12	0	0	0	0	506	510	
13	0	0	0	0	503	265	
14	0	0	0	0	499	387	
15	0	0	0	0	512	643	
0	0	0	0	0	523	826	
1	0	0	0	0	527	530	
2	0	0	0	0	516	415	
3	0	0	0	0	503	211	
4	0	0	0	0	514	317	
5	0	0	0	0	532	890	
6	0	0	0	0	539	938	
7	0	0	0	0	528	568	
8	0	0	0	0	511	407	
9	0	0	0	0	504	403	
10	0	0	0	0	502	409	
11	0	0	0	0	503	335	
12	0	0	0	0	501	485	
13	0	0	0	0	494	361	
14	0	0	0	0	495	396	
15	0	0	0	0	499	917	
0	0	0	0	0	504	634	
1	0	0	0	0	522	418	
2	0	0	0	0	534	477	
3	0	0	0	0	523	363	
4	0	0	0	0	511	322	
5	0	0	0	0	504	392	
6	0	0	0	0	502	592	
7	0	0	0	0	506	944	
8	0	0	0	0	499	641	
9	0	0	0	0	507	255	
10	0	0	0	0	508	0	
11	0	0	0	0	489	180	
12	0	0	0	0	519	1022	
13	0	0	0	0	544	1022	
14	0	0	0	0	534	613	
15	0	0	0	0	514	452	
0	0	0	0	0	508	368	
1	0	0	0	0	503	363	
2	0	0	0	0	498	367	
3	0	0	0	0	491	241	
4	0	0	0	0	516	623	
5	0	0	0	0	557	825	
6	0	0	0	0	540	618	
7	0	0	0	0	521	428	
8	0	0	0	0	508	443	
9	0	0	0	0	507	485	
10	0	0	0	0	504	488	
11	0	0	0	0	503	493	
12	0	0	0	0	501	523	
13	0	0	0	0	501	549	
14	0	0	0	0	499	457	
15	0	0	0	0	502	229	
0	0	0	0	0	499	467	
1	0	0	0	0	517	479	
2	0	0	0	0	528	698	
3	0	0	0	0	532	699	
4	0	0	0	0	520	609	
5	0	0	0	0	507	492	
6	0	0	0	0	507	457	
7	0	0	0	0	507	467	
8	0	0	0	0	508	478	
9	0	0	0	0	513	487	
10	0	0	0	0	515	484	
11	0	0	0	0	518	498	
12	0	0	0	0	525	546	
13	0	0	0	0	522	544	
14	0	0	0	0	505	456	
15	0	0	0	0	487	456	
0	0	0	0	0	481	281	
1	0	0	0	0	490	327	
2	0	0	0	0	504	885	
3	0	0	0	0	519	716	
4	0	0	0	0	520	587	
5	0	0	0	0	523	512	
6	0	0	0	0	530	411	
7	0	0	0	0	526	331	
8	0	0	0	0	517	578	
9	0	0	0	0	513	569	
10	0	0	0	0	511	492	
11	0	0	0	0	510	460	
12	0	0	0	0	507	382	
13	0	0	0	0	512	398	
14	0	0	0	0	510	466	
15	0	0	0	0	508	605	
0	0	0	0	0	507	797	
1	0	0	0	0	504	503	
2	0	0	0	0	502	400	
3	0	0	0	0	503	451	
4	0	0	0	0	509	496	
5	0	0	0	0	512	508	
6	0	0	0	0	518	513	
7	0	0	0	0	518	517	
8	0	0	0	0	515	510	
9	0	0	0	0	513	516	
10	0	0	0	0	517	544	
11	0	0	0	0	514	507	
12	0	0	0	0	508	480	
13	0	0	0	0	503	450	
14	0	0	0	0	494	350	
15	0	0	0	0	507	510	
0	0	0	0	0	523	685	
1	0	0	0	0	532	654	
2	0	0	0	0	522	503	
3	0	0	0	0	511	453	
4	0	0	0	0	508	472	
5	0	0	0	0	510	481	
6	0	0	0	0	511	491	
7	0	0	0	0	508	487	
8	0	0	0	0	504	600	
9	0	0	0	0	506	530	
10	0	0	0	0	505	459	
11	0	0	0	0	509	428	
12	0	0	0	0	516	415	
13	0	0	0	0	519	339	
14	0	0	0	0	517	492	
15	0	0	0	0	517	767	
0	0	0	0	0	516	656	
1	0	0	0	0	511	513	
2	0	0	0	0	499	572	
3	0	0	0	0	511	554	
4	0	0	0	0	524	461	
5	0	0	0	0	523	487	
6	0	0	0	0	515	529	
7	0	0	0	0	508	498	
8	0	0	0	0	510	445	
9	0	0	0	0	504	460	
10	0	0	0	0	506	401	
11	0	0	0	0	508	386	
12	0	0	0	0	515	483	
13	0	0	0	0	506	523	
14	0	0	0	0	500	556	
15	0	0	0	0	504	690	
0	0	0	0	0	511	398	
1	0	0	0	0	509	409	
2	0	0	0	0	524	642	
3	0	0	0	0	520	575	
4	0	0	0	0	509	475	
5	0	0	0	0	513	519	
6	0	0	0	0	518	506	
7	0	0	0	0	514	489	
8	0	0	0	0	510	490	
9	0	0	0	0	509	490	
10	0	0	0	0	510	490	
11	0	0	0	0	513	535	
12	0	0	0	0	512	552	
13	0	0	0	0	515	539	
14	0	0	0	0	516	502	
15	0	0	0	0	511	496	
0	0	0	0	0	509	488	
1	0	0	0	0	505	489	
2	0	0	0	0	508	492	
3	0	0	0	0	510	492	
4	0	0	0	0	512	511	
5	0	0	0	0	513	557	
6	0	0	0	0	515	508	
7	0	0	0	0	513	502	
8	0	0	0	0	512	508	
9	0	0	0	0	511	512	
10	0	0	0	0	513	521	
11	0	0	0	0	509	505	
12	0	0	0	0	508	504	
13	0	0	0	0	510	490	
14	0	0	0	0	509	481	
15	0	0	0	0	514	510	
0	0	0	0	0	514	517	
1	0	0	0	0	512	511	
2	0	0	0	0	513	506	
3	0	0	0	0	510	483	
4	0	0	0	0	512	470	
5	0	0	0	0	512	451	
6	0	0	0	0	513	467	
7	0	0	0	0	514	494	
8	0	0	0	0	510	590	
9	0	0	0	0	510	557	
10	0	0	0	0	511	621	
11	0	0	0	0	513	531	
12	0	0	0	0	516	496	
13	0	0	0	0	517	578	
14	0	0	0	0	509	582	
15	0	0	0	0	505	397	
0	0	0	0	0	505	415	
1	0	0	0	0	514	484	
2	0	0	0	0	511	481	
3	0	0	0	0	506	513	
4	0	0	0	0	506	518	
5	0	0	0	0	508	532	
6	0	0	0	0	514	502	
7	0	0	0	0	514	474	
8	0	0	0	0	509	379	
9	0	0	0	0	507	371	
10	0	0	0	0	518	575	
11	0	0	0	0	519	487	
12	0	0	0	0	517	679	
13	0	0	0	0	518	648	
14	0	0	0	0	512	544	
15	0	0	0	0	509	377	
0	0	0	0	0	507	385	
1	0	0	0	0	511	529	
2	0	0	0	0	513	629	
3	0	0	0	0	515	552	
4	0	0	0	0	516	549	
5	0	0	0	0	511	443	
6	0	0	0	0	509	397	
7	0	0	0	0	506	376	
8	0	0	0	0	506	250	
9	0	0	0	0	503	479	
10	0	0	0	0	516	923	
11	0	0	0	0	528	764	
12	0	0	0	0	530	596	
13	0	0	0	0	524	431	
14	0	0	0	0	513	484	
15	0	0	0	0	515	475	
0	0	0	0	0	513	482	
1	0	0	0	0	511	487	
2	0	0	0	0	504	713	
3	0	0	0	0	495	649	
4	0	0	0	0	501	401	
5	0	0	0	0	504	380	
6	0	0	0	0	511	439	
7	0	0	0	0	512	464	
8	0	0	0	0	512	475	
9	0	0	0	0	513	481	
10	0	0	0	0	511	486	
11	0	0	0	0	512	492	
12	0	0	0	0	512	495	
13	0	0	0	0	514	499	
14	0	0	0	0	516	502	
15	0	0	0	0	513	502	
0	0	0	0	0	511	503	
1	0	0	0	0	513	503	
2	0	0	0	0	512	506	
3	0	0	0	0	508	507	
4	0	0	0	0	508	510	
5	0	0	0	0	513	514	
6	0	0	0	0	513	515	
7	0	0	0	0	511	513	
8	0	0	0	0	511	510	
9	0	0	0	0	511	510	
10	0	0	0	0	512	511	
11	0	0	0	0	512	512	
12	0	0	0	0	511	513	
13	0	0	0	0	512	523	
14	0	0	0	0	514	519	
15	0	0	0	0	513	504	
0	0	0	0	0	511	488	
1	0	0	0	0	511	499	
2	0	0	0	0	514	514	
3	0	0	0	0	516	517	
4	0	0	0	0	519	527	
5	0	0	0	0	520	518	
6	0	0	0	0	519	509	
7	0	0	0	0	516	484	
8	0	0	0	0	508	449	
9	0	0	0	0	497	501	
10	0	0	0	0	502	579	
11	0	0	0	0	511	517	
12	0	0	0	0	509	469	
13	0	0	0	0	505	482	
14	0	0	0	0	510	499	
15	0	0	0	0	513	492	
0	0	0	0	0	513	540	
1	0	0	0	0	511	561	
2	0	0	0	0	509	497	
3	0	0	0	0	512	387	
4	0	0	0	0	512	384	
5	0	0	0	0	512	294	
6	0	0	0	0	513	448	
7	0	0	0	0	511	799	
8	0	0	0	0	513	922	
9	0	0	0	0	508	557	
10	0	0	0	0	518	376	
11	0	0	0	0	522	515	
12	0	0	0	0	522	481	
13	0	0	0	0	518	452	
14	0	0	0	0	511	470	
15	0	0	0	0	509	493	
0	0	0	0	0	510	477	
1	0	0	0	0	511	457	
2	0	0	0	0	511	501	
3	0	0	0	0	512	443	
4	0	0	0	0	513	474	
5	0	0	0	0	511	621	
6	0	0	0	0	511	524	
7	0	0	0	0	511	577	
8	0	0	0	0	509	588	
9	0	0	0	0	509	457	
10	0	0	0	0	508	459	
11	0	0	0	0	508	480	
12	0	0	0	0	508	529	
13	0	0	0	0	508	665	
14	0	0	0	0	512	463	
15	0	0	0	0	519	422	
0	0	0	0	0	519	432	
1	0	0	0	0	514	483	
2	0	0	0	0	511	531	
3	0	0	0	0	516	506	
4	0	0	0	0	515	537	
5	0	0	0	0	512	539	
6	0	0	0	0	512	449	
7	0	0	0	0	511	480	
8	0	0	0	0	511	515	
9	0	0	0	0	514	521	
10	0	0	0	0	512	515	
11	0	0	0	0	512	510	
12	0	0	0	0	512	502	
13	0	0	0	0	511	494	
14	0	0	0	0	510	492	
15	0	0	0	0	510	490	
0	0	0	0	0	509	478	
1	0	0	0	0	509	510	
2	0	0	0	0	507	533	
3	0	0	0	0	510	511	
4	0	0	0	0	513	519	
5	0	0	0	0	508	551	
6	0	0	0	0	506	689	
7	0	0	0	0	511	535	
8	0	0	0	0	514	431	
9	0	0	0	0	510	366	
10	0	0	0	0	506	382	
11	0	0	0	0	510	544	
12	0	0	0	0	517	591	
13	0	0	0	0	520	536	
14	0	0	0	0	518	512	
15	0	0	0	0	515	513	
0	0	0	0	0	511	513	
1	0	0	0	0	512	505	
2	0	0	0	0	509	502	
3	0	0	0	0	510	502	
4	0	0	0	0	512	502	
5	0	0	0	0	511	522	
6	0	0	0	0	509	530	
7	0	0	0	0	506	467	
8	0	0	0	0	508	440	
9	0	0	0	0	511	442	
10	0	0	0	0	502	353	
11	0	0	0	0	499	280	
12	0	0	0	0	508	783	
13	0	0	0	0	521	799	
14	0	0	0	0	532	503	
15	0	0	0	0	528	384	
0	0	0	0	0	519	399	
1	0	0	0	0	513	387	
2	0	0	0	0	508	632	
3	0	0	0	0	509	933	
4	0	0	0	0	508	576	
5	0	0	0	0	510	371	
6	0	0	0	0	513	552	
7	0	0	0	0	514	632	
8	0	0	0	0	513	498	
9	0	0	0	0	513	437	
10	0	0	0	0	515	443	
11	0	0	0	0	520	456	
12	0	0	0	0	513	472	
13	0	0	0	0	513	500	
14	0	0	0	0	514	513	
15	0	0	0	0	513	521	
0	0	0	0	0	513	520	
1	0	0	0	0	511	334	
2	0	0	0	0	504	291	
3	0	0	0	0	498	316	
4	0	0	0	0	510	422	
5	0	0	0	0	510	572	
6	0	0	0	0	504	848	
7	0	0	0	0	514	765	
8	0	0	0	0	522	553	
9	0	0	0	0	527	446	
10	0	0	0	0	520	464	
11	0	0	0	0	514	475	
12	0	0	0	0	512	538	
13	0	0	0	0	508	559	
14	0	0	0	0	507	505	
15	0	0	0	0	511	439	
0	0	0	0	0	511	480	
1	0	0	0	0	510	517	
2	0	0	0	0	507	460	
3	0	0	0	0	511	516	
4	0	0	0	0	511	542	
5	0	0	0	0	512	510	
6	0	0	0	0	513	495	
7	0	0	0	0	513	490	
8	0	0	0	0	512	497	
9	0	0	0	0	511	503	
10	0	0	0	0	510	497	
11	0	0	0	0	509	473	
12	0	0	0	0	508	456	
13	0	0	0	0	509	396	
14	0	0	0	0	505	382	
15	0	0	0	0	504	582	
0	0	0	0	0	502	704	
1	0	0	0	0	509	656	
2	0	0	0	0	518	436	
3	0	0	0	0	524	411	
4	0	0	0	0	522	512	
5	0	0	0	0	519	693	
6	0	0	0	0	511	745	
7	0	0	0	0	514	520	
8	0	0	0	0	518	348	
9	0	0	0	0	514	387	
10	0	0	0	0	513	416	
11	0	0	0	0	512	447	
12	0	0	0	0	508	465	
13	0	0	0	0	509	521	
14	0	0	0	0	513	542	
15	0	0	0	0	511	632	
0	0	0	0	0	509	567	
1	0	0	0	0	515	473	
2	0	0	0	0	511	477	
3	0	0	0	0	510	486	
4	0	0	0	0	506	495	
5	0	0	0	0	506	488	
6	0	0	0	0	509	471	
7	0	0	0	0	508	424	
8	0	0	0	0	509	329	
9	0	0	0	0	507	296	
10	0	0	0	0	511	528	
11	0	0	0	0	513	563	
12	0	0	0	0	510	711	
13	0	0	0	0	511	891	
14	0	0	0	0	517	643	
15	0	0	0	0	519	484	
0	0	0	0	0	515	510	
1	0	0	0	0	513	510	
2	0	0	0	0	508	562	
3	0	0	0	0	516	472	
4	0	0	0	0	512	467	
5	0	0	0	0	508	487	
6	0	0	0	0	505	370	
7	0	0	0	0	509	450	
8	0	0	0	0	510	489	
9	0	0	0	0	512	487	
10	0	0	0	0	512	492	
11	0	0	0	0	511	491	
12	0	0	0	0	510	486	
13	0	0	0	0	511	501	
14	0	0	0	0	512	508	
15	0	0	0	0	513	478	
0	0	0	0	0	512	466	
1	0	0	0	0	511	455	
2	0	0	0	0	511	499	
3	0	0	0	0	511	438	
4	0	0	0	0	511	504	
5	0	0	0	0	511	567	
6	0	0	0	0	510	666	
7	0	0	0	0	511	600	
8	0	0	0	0	511	425	
9	0	0	0	0	513	474	
10	0	0	0	0	516	689	
11	0	0	0	0	518	732	
12	0	0	0	0	519	516	
13	0	0	0	0	519	416	
14	0	0	0	0	516	388	
15	0	0	0	0	512	425	
0	0	0	0	0	508	467	
1	0	0	0	0	509	488	
2	0	0	0	0	508	524	
3	0	0	0	0	504	556	
4	0	0	0	0	505	506	
5	0	0	0	0	503	325	
6	0	0	0	0	502	244	
7	0	0	0	0	509	321	
8	0	0	0	0	507	479	
9	0	0	0	0	507	423	
10	0	0	0	0	500	377	
11	0	0	0	0	509	1022	
12	0	0	0	0	524	1022	
13	0	0	0	0	542	503	
14	0	0	0	0	539	427	
15	0	0	0	0	529	534	
0	0	0	0	0	521	339	
1	0	0	0	0	508	391	
2	0	0	0	0	506	611	
3	0	0	0	0	505	686	
4	0	0	0	0	504	567	
5	0	0	0	0	518	326	
6	0	0	0	0	518	305	
7	0	0	0	0	514	468	
8	0	0	0	0	511	591	
9	0	0	0	0	506	580	
10	0	0	0	0	503	550	
11	0	0	0	0	504	507	
12	0	0	0	0	503	573	
13	0	0	0	0	509	562	
14	0	0	0	0	507	423	
15	0	0	0	0	505	342	
0	0	0	0	0	507	339	
1	0	0	0	0	505	381	
2	0	0	0	0	505	399	
3	0	0	0	0	507	419	
4	0	0	0	0	505	835	
5	0	0	0	0	508	776	
6	0	0	0	0	514	696	
7	0	0	0	0	522	591	
8	0	0	0	0	520	441	
9	0	0	0	0	523	288	
10	0	0	0	0	521	376	
11	0	0	0	0	526	437	
12	0	0	0	0	521	471	
13	0	0	0	0	514	448	
14	0	0	0	0	506	561	
15	0	0	0	0	500	647	
0	0	0	0	0	501	561	
1	0	0	0	0	505	492	
2	0	0	0	0	512	482	
3	0	0	0	0	509	501	
4	0	0	0	0	512	508	
5	0	0	0	0	513	508	
6	0	0	0	0	515	505	
7	0	0	0	0	509	503	
8	0	0	0	0	508	487	
9	0	0	0	0	506	480	
10	0	0	0	0	508	490	
11	0	0	0	0	507	506	
12	0	0	0	0	502	345	
13	0	0	0	0	501	260	
14	0	0	0	0	505	386	
15	0	0	0	0	508	359	
0	0	0	0	0	506	275	
1	0	0	0	0	492	378	
2	0	0	0	0	489	1022	
3	0	0	0	0	504	1022	
4	0	0	0	0	531	806	
5	0	0	0	0	543	682	
6	0	0	0	0	531	508	
7	0	0	0	0	518	323	
8	0	0	0	0	519	304	
9	0	0	0	0	525	352	
10	0	0	0	0	526	350	
11	0	0	0	0	527	329	
12	0	0	0	0	529	392	
13	0	0	0	0	531	440	
14	0	0	0	0	520	411	
15	0	0	0	0	511	574	
0	0	0	0	0	508	724	
1	0	0	0	0	508	593	
2	0	0	0	0	515	522	
3	0	0	0	0	514	497	
4	0	0	0	0	513	491	
5	0	0	0	0	506	490	
6	0	0	0	0	504	489	
7	0	0	0	0	501	496	
8	0	0	0	0	492	501	
9	0	0	0	0	488	516	
10	0	0	0	0	489	532	
11	0	0	0	0	492	524	
12	0	0	0	0	499	515	
13	0	0	0	0	507	496	
14	0	0	0	0	511	473	
15	0	0	0	0	511	467	
0	0	0	0	0	506	510	
1	0	0	0	0	513	448	
2	0	0	0	0	524	480	
3	0	0	0	0	527	460	
4	0	0	0	0	525	453	
5	0	0	0	0	521	599	
6	0	0	0	0	517	597	
7	0	0	0	0	515	543	
8	0	0	0	0	515	513	
9	0	0	0	0	515	509	
10	0	0	0	0	512	503	
11	0	0	0	0	511	504	
12	0	0	0	0	510	503	
13	0	0	0	0	509	505	
14	0	0	0	0	508	504	
15	0	0	0	0	507	508	
0	0	0	0	0	506	515	
1	0	0	0	0	505	449	
2	0	0	0	0	505	385	
3	0	0	0	0	506	361	
4	0	0	0	0	508	367	
5	0	0	0	0	509	284	
6	0	0	0	0	508	310	
7	0	0	0	0	494	604	
8	0	0	0	0	488	795	
9	0	0	0	0	511	708	
10	0	0	0	0	532	733	
11	0	0	0	0	538	1012	
12	0	0	0	0	530	903	
13	0	0	0	0	519	830	
14	0	0	0	0	516	435	
15	0	0	0	0	531	192	
0	0	0	0	0	541	204	
1	0	0	0	0	540	332	
2	0	0	0	0	529	373	
3	0	0	0	0	516	420	
4	0	0	0	0	504	456	
5	0	0	0	0	499	473	
6	0	0	0	0	499	480	
7	0	0	0	0	497	489	
8	0	0	0	0	494	502	
9	0	0	0	0	496	490	
10	0	0	0	0	495	449	
11	0	0	0	0	497	410	
12	0	0	0	0	496	407	
13	0	0	0	0	498	441	
14	0	0	0	0	496	486	
15	0	0	0	0	492	705	
0	0	0	0	0	505	649	
1	0	0	0	0	524	796	
2	0	0	0	0	536	602	
3	0	0	0	0	543	384	
4	0	0	0	0	541	340	
5	0	0	0	0	531	326	
6	0	0	0	0	521	353	
7	0	0	0	0	513	391	
8	0	0	0	0	505	398	
9	0	0	0	0	499	422	
10	0	0	0	0	493	763	
11	0	0	0	0	502	699	
12	0	0	0	0	511	501	
13	0	0	0	0	515	446	
14	0	0	0	0	511	544	
15	0	0	0	0	505	702	
0	0	0	0	0	504	976	
1	0	0	0	0	511	708	
2	0	0	0	0	524	276	
3	0	0	0	0	535	267	
4	0	0	0	0	530	413	
5	0	0	0	0	518	513	
6	0	0	0	0	510	423	
7	0	0	0	0	501	787	
8	0	0	0	0	493	772	
9	0	0	0	0	509	449	
10	0	0	0	0	514	327	
11	0	0	0	0	523	434	
12	0	0	0	0	525	485	
13	0	0	0	0	524	466	
14	0	0	0	0	513	450	
15	0	0	0	0	508	448	
0	0	0	0	0	508	465	
1	0	0	0	0	508	477	
2	0	0	0	0	504	484	
3	0	0	0	0	501	529	
4	0	0	0	0	503	530	
5	0	0	0	0	504	518	
6	0	0	0	0	503	482	
7	0	0	0	0	508	457	
8	0	0	0	0	513	486	
9	0	0	0	0	513	498	
10	0	0	0	0	512	528	
11	0	0	0	0	511	537	
12	0	0	0	0	510	492	
13	0	0	0	0	506	413	
14	0	0	0	0	504	489	
15	0	0	0	0	510	542	
0	0	0	0	0	515	530	
1	0	0	0	0	517	485	
2	0	0	0	0	516	518	
3	0	0	0	0	516	540	
4	0	0	0	0	513	440	
5	0	0	0	0	512	401	
6	0	0	0	0	512	411	
7	0	0	0	0	512	528	
8	0	0	0	0	508	646	
9	0	0	0	0	508	722	
10	0	0	0	0	502	674	
11	0	0	0	0	494	591	
12	0	0	0	0	492	455	
13	0	0	0	0	501	180	
14	0	0	0	0	517	186	
15	0	0	0	0	518	330	
0	0	0	0	0	505	390	
1	0	0	0	0	502	1022	
2	0	0	0	0	515	1022	
3	0	0	0	0	550	711	
4	0	0	0	0	564	432	
5	0	0	0	0	561	349	
6	0	0	0	0	544	326	
7	0	0	0	0	523	299	
8	0	0	0	0	507	335	
9	0	0	0	0	495	348	
10	0	0	0	0	490	423	
11	0	0	0	0	485	776	
12	0	0	0	0	485	857	
13	0	0	0	0	496	728	
14	0	0	0	0	504	331	
15	0	0	0	0	514	298	
0	0	0	0	0	521	373	
1	0	0	0	0	510	395	
2	0	0	0	0	499	396	
3	0	0	0	0	497	430	
4	0	0	0	0	500	440	
5	0	0	0	0	504	475	
6	0	0	0	0	505	489	
7	0	0	0	0	505	470	
8	0	0	0	0	511	687	
9	0	0	0	0	521	749	
10	0	0	0	0	534	653	
11	0	0	0	0	542	536	
12	0	0	0	0	536	459	
13	0	0	0	0	527	425	
14	0	0	0	0	518	460	
15	0	0	0	0	511	512	
0	0	0	0	0	504	509	
1	0	0	0	0	497	504	
2	0	0	0	0	491	512	
3	0	0	0	0	497	502	
4	0	0	0	0	502	480	
5	0	0	0	0	503	460	
6	0	0	0	0	507	427	
7	0	0	0	0	509	422	
8	0	0	0	0	509	443	
9	0	0	0	0	511	409	
10	0	0	0	0	511	391	
11	0	0	0	0	508	427	
12	0	0	0	0	505	604	
13	0	0	0	0	505	637	
14	0	0	0	0	499	509	
15	0	0	0	0	494	662	
0	0	0	0	0	503	849	
1	0	0	0	0	516	725	
2	0	0	0	0	528	293	
3	0	0	0	0	530	142	
4	0	0	0	0	524	663	
5	0	0	0	0	527	1021	
6	0	0	0	0	544	664	
7	0	0	0	0	552	477	
8	0	0	0	0	545	399	
9	0	0	0	0	530	316	
10	0	0	0	0	515	395	
11	0	0	0	0	509	330	
12	0	0	0	0	507	419	
13	0	0	0	0	506	457	
14	0	0	0	0	504	590	
15	0	0	0	0	495	616	
0	0	0	0	0	491	535	
1	0	0	0	0	500	484	
2	0	0	0	0	506	469	
3	0	0	0	0	509	484	
4	0	0	0	0	503	462	
5	0	0	0	0	502	440	
6	0	0	0	0	502	487	
7	0	0	0	0	504	503	
8	0	0	0	0	503	450	
9	0	0	0	0	504	456	
10	0	0	0	0	503	476	
11	0	0	0	0	505	508	
12	0	0	0	0	508	614	
13	0	0	0	0	512	607	
14	0	0	0	0	523	523	
15	0	0	0	0	528	510	
0	0	0	0	0	528	559	
1	0	0	0	0	527	540	
2	0	0	0	0	523	484	
3	0	0	0	0	520	447	
4	0	0	0	0	514	466	
5	0	0	0	0	510	531	
6	0	0	0	0	505	619	
7	0	0	0	0	506	541	
8	0	0	0	0	506	496	
9	0	0	0	0	506	489	
10	0	0	0	0	508	491	
11	0	0	0	0	510	496	
12	0	0	0	0	509	504	
13	0	0	0	0	507	539	
14	0	0	0	0	498	404	
15	0	0	0	0	496	247	
0	0	0	0	0	502	237	
1	0	0	0	0	505	268	
2	0	0	0	0	500	317	
3	0	0	0	0	494	457	
4	0	0	0	0	487	922	
5	0	0	0	0	499	1022	
6	0	0	0	0	517	946	
7	0	0	0	0	535	719	
8	0	0	0	0	545	667	
9	0	0	0	0	560	413	
10	0	0	0	0	563	238	
11	0	0	0	0	549	345	
12	0	0	0	0	531	415	
13	0	0	0	0	517	377	
14	0	0	0	0	512	362	
15	0	0	0	0	510	423	
0	0	0	0	0	503	475	
1	0	0	0	0	497	487	
2	0	0	0	0	490	480	
3	0	0	0	0	488	471	
4	0	0	0	0	488	441	
5	0	0	0	0	490	469	
6	0	0	0	0	493	506	
7	0	0	0	0	496	473	
8	0	0	0	0	497	402	
9	0	0	0	0	504	615	
10	0	0	0	0	502	693	
11	0	0	0	0	505	485	
12	0	0	0	0	513	462	
13	0	0	0	0	513	533	
14	0	0	0	0	514	711	
15	0	0	0	0	527	764	
0	0	0	0	0	536	557	
1	0	0	0	0	543	428	
2	0	0	0	0	540	435	
3	0	0	0	0	531	444	
4	0	0	0	0	518	438	
5	0	0	0	0	515	450	
6	0	0	0	0	510	460	
7	0	0	0	0	504	435	
8	0	0	0	0	504	356	
9	0	0	0	0	497	323	
10	0	0	0	0	495	275	
11	0	0	0	0	498	320	
12	0	0	0	0	499	370	
13	0	0	0	0	499	410	
14	0	0	0	0	494	665	
15	0	0	0	0	492	1022	
0	0	0	0	0	497	1022	
1	0	0	0	0	517	706	
2	0	0	0	0	523	484	
3	0	0	0	0	524	438	
4	0	0	0	0	533	374	
5	0	0	0	0	537	267	
6	0	0	0	0	539	319	
7	0	0	0	0	523	532	
8	0	0	0	0	509	859	
9	0	0	0	0	503	593	
10	0	0	0	0	509	467	
11	0	0	0	0	509	264	
12	0	0	0	0	515	258	
13	0	0	0	0	521	368	
14	0	0	0	0	520	382	
15	0	0	0	0	516	371	
0	0	0	0	0	508	657	
1	0	0	0	0	502	825	
2	0	0	0	0	514	464	
3	0	0	0	0	517	324	
4	0	0	0	0	517	421	
5	0	0	0	0	515	577	
6	0	0	0	0	510	602	
7	0	0	0	0	505	591	
8	0	0	0	0	504	567	
9	0	0	0	0	504	581	
10	0	0	0	0	502	480	
11	0	0	0	0	503	465	
12	0	0	0	0	513	464	
13	0	0	0	0	518	469	
14	0	0	0	0	515	473	
15	0	0	0	0	510	481	
0	0	0	0	0	504	497	
1	0	0	0	0	503	510	
2	0	0	0	0	506	517	
3	0	0	0	0	511	518	
4	0	0	0	0	510	509	
5	0	0	0	0	511	509	
6	0	0	0	0	507	504	
7	0	0	0	0	510	488	
8	0	0	0	0	512	481	
9	0	0	0	0	509	481	
10	0	0	0	0	507	494	
11	0	0	0	0	508	529	
12	0	0	0	0	511	538	
13	0	0	0	0	514	543	
14	0	0	0	0	514	636	
15	0	0	0	0	513	589	
0	0	0	0	0	514	511	
1	0	0	0	0	520	478	
2	0	0	0	0	522	475	
3	0	0	0	0	521	487	
4	0	0	0	0	518	493	
5	0	0	0	0	513	491	
6	0	0	0	0	511	495	
7	0	0	0	0	511	495	
8	0	0	0	0	510	496	
9	0	0	0	0	509	498	
10	0	0	0	0	508	500	
11	0	0	0	0	510	505	
12	0	0	0	0	508	499	
13	0	0	0	0	505	442	
14	0	0	0	0	504	388	
15	0	0	0	0	495	408	
0	0	0	0	0	487	338	
1	0	0	0	0	490	380	
2	0	0	0	0	498	409	
3	0	0	0	0	499	551	
4	0	0	0	0	498	912	
5	0	0	0	0	501	1022	
6	0	0	0	0	511	835	
7	0	0	0	0	538	491	
8	0	0	0	0	562	384	
9	0	0	0	0	572	371	
10	0	0	0	0	566	303	
11	0	0	0	0	550	340	
12	0	0	0	0	533	384	
13	0	0	0	0	512	431	
14	0	0	0	0	494	434	
15	0	0	0	0	480	668	
0	0	0	0	0	475	423	
1	0	0	0	0	491	192	
2	0	0	0	0	499	283	
3	0	0	0	0	509	372	
4	0	0	0	0	503	672	
5	0	0	0	0	497	803	
6	0	0	0	0	498	792	
7	0	0	0	0	512	527	
8	0	0	0	0	521	471	
9	0	0	0	0	526	524	
10	0	0	0	0	528	804	
11	0	0	0	0	525	818	
12	0	0	0	0	520	579	
13	0	0	0	0	523	418	
14	0	0	0	0	519	356	
15	0	0	0	0	512	329	
0	0	0	0	0	507	312	
1	0	0	0	0	508	310	
2	0	0	0	0	504	349	
3	0	0	0	0	499	500	
4	0	0	0	0	493	737	
5	0	0	0	0	494	812	
6	0	0	0	0	502	595	
7	0	0	0	0	512	573	
8	0	0	0	0	527	503	
9	0	0	0	0	532	436	
10	0	0	0	0	526	401	
11	0	0	0	0	521	411	
12	0	0	0	0	515	428	
13	0	0	0	0	511	466	
14	0	0	0	0	505	520	
15	0	0	0	0	503	522	
0	0	0	0	0	503	506	
1	0	0	0	0	501	507	
2	0	0	0	0	504	505	
3	0	0	0	0	508	499	
4	0	0	0	0	511	489	
5	0	0	0	0	512	508	
6	0	0	0	0	512	518	
7	0	0	0	0	515	505	
8	0	0	0	0	512	491	
9	0	0	0	0	511	520	
10	0	0	0	0	505	499	
11	0	0	0	0	501	505	
12	0	0	0	0	499	435	
13	0	0	0	0	500	406	
14	0	0	0	0	501	395	
15	0	0	0	0	501	422	
0	0	0	0	0	505	399	
1	0	0	0	0	504	692	
2	0	0	0	0	495	969	
3	0	0	0	0	503	653	
4	0	0	0	0	531	268	
5	0	0	0	0	551	518	
6	0	0	0	0	553	469	
7	0	0	0	0	557	463	
8	0	0	0	0	546	479	
9	0	0	0	0	534	489	
10	0	0	0	0	521	550	
11	0	0	0	0	504	631	
12	0	0	0	0	499	509	
13	0	0	0	0	501	371	
14	0	0	0	0	502	550	
15	0	0	0	0	505	711	
0	0	0	0	0	508	710	
1	0	0	0	0	515	536	
2	0	0	0	0	520	455	
3	0	0	0	0	518	458	
4	0	0	0	0	509	442	
5	0	0	0	0	496	488	
6	0	0	0	0	488	549	
7	0	0	0	0	486	510	
8	0	0	0	0	490	528	
9	0	0	0	0	504	456	
10	0	0	0	0	511	333	
11	0	0	0	0	517	392	
12	0	0	0	0	511	569	
13	0	0	0	0	502	515	
14	0	0	0	0	497	331	
15	0	0	0	0	505	281	
0	0	0	0	0	518	338	
1	0	0	0	0	524	388	
2	0	0	0	0	522	515	
3	0	0	0	0	508	927	
4	0	0	0	0	508	1022	
5	0	0	0	0	523	630	
6	0	0	0	0	533	316	
7	0	0	0	0	526	332	
8	0	0	0	0	519	361	
9	0	0	0	0	513	434	
10	0	0	0	0	508	478	
11	0	0	0	0	503	526	
12	0	0	0	0	503	343	
13	0	0	0	0	507	419	
14	0	0	0	0	513	641	
15	0	0	0	0	522	573	
0	0	0	0	0	524	652	
1	0	0	0	0	509	588	
2	0	0	0	0	499	500	
3	0	0	0	0	502	443	
4	0	0	0	0	510	455	
5	0	0	0	0	513	366	
6	0	0	0	0	515	458	
7	0	0	0	0	510	657	
8	0	0	0	0	508	665	
9	0	0	0	0	520	495	
10	0	0	0	0	530	469	
11	0	0	0	0	523	695	
12	0	0	0	0	510	566	
13	0	0	0	0	510	538	
14	0	0	0	0	510	638	
15	0	0	0	0	506	608	
0	0	0	0	0	502	452	
1	0	0	0	0	504	328	
2	0	0	0	0	510	374	
3	0	0	0	0	512	413	
4	0	0	0	0	511	331	
5	0	0	0	0	508	302	
6	0	0	0	0	506	356	
7	0	0	0	0	504	393	
8	0	0	0	0	499	378	
9	0	0	0	0	487	562	
10	0	0	0	0	483	819	
11	0	0	0	0	500	664	
12	0	0	0	0	521	543	
13	0	0	0	0	524	592	
14	0	0	0	0	526	698	
15	0	0	0	0	547	723	
0	0	0	0	0	554	635	
1	0	0	0	0	550	553	
2	0	0	0	0	536	472	
3	0	0	0	0	530	390	
4	0	0	0	0	524	390	
5	0	0	0	0	514	410	
6	0	0	0	0	502	438	
7	0	0	0	0	492	459	
8	0	0	0	0	487	464	
9	0	0	0	0	485	449	
10	0	0	0	0	483	378	
11	0	0	0	0	483	331	
12	0	0	0	0	487	319	
13	0	0	0	0	501	354	
14	0	0	0	0	505	679	
15	0	0	0	0	504	975	
0	0	0	0	0	511	912	
1	0	0	0	0	521	455	
2	0	0	0	0	532	311	
3	0	0	0	0	540	696	
4	0	0	0	0	533	593	
5	0	0	0	0	521	440	
6	0	0	0	0	515	399	
7	0	0	0	0	515	449	
8	0	0	0	0	513	503	
9	0	0	0	0	510	444	
10	0	0	0	0	505	349	
11	0	0	0	0	498	423	
12	0	0	0	0	491	535	
13	0	0	0	0	493	545	
14	0	0	0	0	502	443	
15	0	0	0	0	514	555	
0	0	0	0	0	520	466	
1	0	0	0	0	518	537	
2	0	0	0	0	523	572	
3	0	0	0	0	523	588	
4	0	0	0	0	528	631	
5	0	0	0	0	526	624	
6	0	0	0	0	529	632	
7	0	0	0	0	522	389	
8	0	0	0	0	517	236	
9	0	0	0	0	514	283	
10	0	0	0	0	507	431	
11	0	0	0	0	499	673	
12	0	0	0	0	499	881	
13	0	0	0	0	499	604	
14	0	0	0	0	499	384	
15	0	0	0	0	500	378	
0	0	0	0	0	493	407	
1	0	0	0	0	495	590	
2	0	0	0	0	502	574	
3	0	0	0	0	512	435	
4	0	0	0	0	521	359	
5	0	0	0	0	524	377	
6	0	0	0	0	528	416	
7	0	0	0	0	531	538	
8	0	0	0	0	521	766	
9	0	0	0	0	515	711	
10	0	0	0	0	516	541	
11	0	0	0	0	518	460	
12	0	0	0	0	513	418	
13	0	0	0	0	507	519	
14	0	0	0	0	503	439	
15	0	0	0	0	495	398	
0	0	0	0	0	490	353	
1	0	0	0	0	492	340	
2	0	0	0	0	491	424	
3	0	0	0	0	493	568	
4	0	0	0	0	494	626	
5	0	0	0	0	499	725	
6	0	0	0	0	518	735	
7	0	0	0	0	535	576	
8	0	0	0	0	536	607	
9	0	0	0	0	544	752	
10	0	0	0	0	556	399	
11	0	0	0	0	549	403	
12	0	0	0	0	539	503	
13	0	0	0	0	536	470	
14	0	0	0	0	516	458	
15	0	0	0	0	500	502	
0	0	0	0	0	496	373	
1	0	0	0	0	495	335	
2	0	0	0	0	489	282	
3	0	0	0	0	483	250	
4	0	0	0	0	480	378	
5	0	0	0	0	477	484	
6	0	0	0	0	479	971	
7	0	0	0	0	497	778	
8	0	0	0	0	518	599	
9	0	0	0	0	528	523	
10	0	0	0	0	522	509	
11	0	0	0	0	523	578	
12	0	0	0	0	534	384	
13	0	0	0	0	540	317	
14	0	0	0	0	533	407	
15	0	0	0	0	519	944	
0	0	0	0	0	514	648	
1	0	0	0	0	527	382	
2	0	0	0	0	529	443	
3	0	0	0	0	513	383	
4	0	0	0	0	492	248	
5	0	0	0	0	495	256	
6	0	0	0	0	492	422	
7	0	0	0	0	493	464	
8	0	0	0	0	492	636	
9	0	0	0	0	493	954	
10	0	0	0	0	497	1022	
11	0	0	0	0	516	655	
12	0	0	0	0	536	170	
13	0	0	0	0	539	255	
14	0	0	0	0	535	199	
15	0	0	0	0	531	171	
0	0	0	0	0	520	380	
1	0	0	0	0	513	981	
2	0	0	0	0	511	680	
3	0	0	0	0	510	708	
4	0	0	0	0	504	701	
5	0	0	0	0	502	686	
6	0	0	0	0	502	403	
7	0	0	0	0	509	225	
8	0	0	0	0	508	313	
9	0	0	0	0	515	439	
10	0	0	0	0	517	572	
11	0	0	0	0	512	400	
12	0	0	0	0	502	333	
13	0	0	0	0	501	423	
14	0	0	0	0	494	489	
15	0	0	0	0	495	551	
0	0	0	0	0	491	715	
1	0	0	0	0	495	796	
2	0	0	0	0	512	630	
3	0	0	0	0	521	512	
4	0	0	0	0	529	475	
5	0	0	0	0	532	489	
6	0	0	0	0	521	368	
7	0	0	0	0	508	435	
8	0	0	0	0	511	299	
9	0	0	0	0	520	311	
10	0	0	0	0	516	390	
11	0	0	0	0	508	565	
12	0	0	0	0	500	587	
13	0	0	0	0	494	503	
14	0	0	0	0	507	449	
15	0	0	0	0	517	522	
0	0	0	0	0	518	506	
1	0	0	0	0	516	827	
2	0	0	0	0	514	1022	
3	0	0	0	0	512	665	
4	0	0	0	0	530	327	
5	0	0	0	0	537	365	
6	0	0	0	0	528	397	
7	0	0	0	0	524	365	
8	0	0	0	0	516	422	
9	0	0	0	0	504	335	
10	0	0	0	0	496	352	
11	0	0	0	0	494	492	
12	0	0	0	0	492	308	
13	0	0	0	0	493	192	
14	0	0	0	0	491	190	
15	0	0	0	0	490	381	
0	0	0	0	0	494	323	
1	0	0	0	0	497	398	
2	0	0	0	0	502	1022	
3	0	0	0	0	525	1022	
4	0	0	0	0	546	1022	
5	0	0	0	0	548	914	
6	0	0	0	0	550	337	
7	0	0	0	0	554	241	
8	0	0	0	0	547	179	
9	0	0	0	0	538	247	
10	0	0	0	0	521	354	
11	0	0	0	0	510	404	
12	0	0	0	0	496	465	
13	0	0	0	0	491	502	
14	0	0	0	0	490	505	
15	0	0	0	0	482	506	
0	0	0	0	0	480	632	
1	0	0	0	0	481	432	
2	0	0	0	0	480	120	
3	0	0	0	0	490	235	
4	0	0	0	0	499	619	
5	0	0	0	0	504	702	
6	0	0	0	0	501	900	
7	0	0	0	0	516	833	
8	0	0	0	0	530	711	
9	0	0	0	0	546	594	
10	0	0	0	0	549	647	
11	0	0	0	0	544	382	
12	0	0	0	0	536	197	
13	0	0	0	0	527	256	
14	0	0	0	0	520	415	
15	0	0	0	0	518	475	
0	0	0	0	0	510	429	
1	0	0	0	0	496	457	
2	0	0	0	0	485	497	
3	0	0	0	0	482	375	
4	0	0	0	0	488	333	
5	0	0	0	0	490	488	
6	0	0	0	0	495	632	
7	0	0	0	0	508	624	
8	0	0	0	0	513	752	
9	0	0	0	0	514	674	
10	0	0	0	0	524	732	
11	0	0	0	0	535	635	
12	0	0	0	0	530	464	
13	0	0	0	0	518	282	
14	0	0	0	0	513	145	
15	0	0	0	0	510	160	
0	0	0	0	0	502	250	
1	0	0	0	0	496	368	
2	0	0	0	0	483	665	
3	0	0	0	0	482	707	
4	0	0	0	0	491	876	
5	0	0	0	0	509	852	
6	0	0	0	0	526	677	
7	0	0	0	0	539	387	
8	0	0	0	0	538	399	
9	0	0	0	0	528	547	
10	0	0	0	0	528	592	
11	0	0	0	0	536	604	
12	0	0	0	0	544	427	
13	0	0	0	0	546	395	
14	0	0	0	0	537	351	
15	0	0	0	0	523	497	
0	0	0	0	0	507	582	
1	0	0	0	0	501	420	
2	0	0	0	0	497	358	
3	0	0	0	0	490	384	
4	0	0	0	0	488	419	
5	0	0	0	0	493	486	
6	0	0	0	0	492	554	
7	0	0	0	0	491	608	
8	0	0	0	0	492	780	
9	0	0	0	0	487	884	
10	0	0	0	0	490	670	
11	0	0	0	0	504	419	
12	0	0	0	0	515	241	
13	0	0	0	0	519	274	
14	0	0	0	0	523	311	
15	0	0	0	0	519	441	
0	0	0	0	0	510	520	
1	0	0	0	0	502	886	
2	0	0	0	0	502	851	
3	0	0	0	0	515	847	
4	0	0	0	0	533	515	
5	0	0	0	0	534	350	
6	0	0	0	0	526	273	
7	0	0	0	0	524	197	
8	0	0	0	0	523	290	
9	0	0	0	0	518	550	
10	0	0	0	0	517	597	
11	0	0	0	0	518	510	
12	0	0	0	0	512	497	
13	0	0	0	0	500	494	
14	0	0	0	0	496	451	
15	0	0	0	0	496	490	
0	0	0	0	0	500	410	
1	0	0	0	0	507	615	
2	0	0	0	0	509	639	
3	0	0	0	0	510	583	
4	0	0	0	0	510	420	
5	0	0	0	0	513	316	
6	0	0	0	0	515	178	
7	0	0	0	0	514	207	
8	0	0	0	0	502	240	
9	0	0	0	0	493	372	
10	0	0	0	0	488	765	
11	0	0	0	0	494	1022	
12	0	0	0	0	509	1022	
13	0	0	0	0	526	833	
14	0	0	0	0	548	593	
15	0	0	0	0	568	449	
0	0	0	0	0	558	283	
1	0	0	0	0	538	248	
2	0	0	0	0	520	270	
3	0	0	0	0	508	319	
4	0	0	0	0	497	309	
5	0	0	0	0	490	333	
6	0	0	0	0	482	198	
7	0	0	0	0	475	642	
8	0	0	0	0	481	674	
9	0	0	0	0	501	363	
10	0	0	0	0	521	205	
11	0	0	0	0	514	534	
12	0	0	0	0	501	1022	
13	0	0	0	0	529	832	
14	0	0	0	0	543	657	
