# OpenSignals Text File Format. Version 1
# {"88:6B:0F:F0:D6:9F": {"position": 0, "device": "bitalino_rev", "device name": "88:6B:0F:F0:D6:9F", "device connection": "BTH88:6B:0F:F0:D6:9F", "sampling rate": 1000, "resolution": [4, 1, 1, 1, 1, 10, 10], "firmware version": 1282, "comments": "", "keywords": "", "mode": 0, "sync interval": 2, "date": "2025-10-22", "time": "13:53:29.222", "channels": [3, 4], "sensor": ["EMGBITREV", "EMGBITREV"], "label": ["A3", "A4"], "column": ["nSeq", "I1", "I2", "O1", "O2", "A3", "A4"], "special": [{}, {}], "digital IO": [0, 0, 1, 1], "convertedValues": 0}}
# EndOfHeader
0	0	0	0	0	515	501	
1	0	0	0	0	514	503	
2	0	0	0	0	515	504	
3	0	0	0	0	513	503	
4	0	0	0	0	512	505	
5	0	0	0	0	514	503	
6	0	0	0	0	511	493	
7	0	0	0	0	513	495	
8	0	0	0	0	509	500	
9	0	0	0	0	510	504	
10	0	0	0	0	508	509	
11	0	0	0	0	499	522	
12	0	0	0	0	499	527	
13	0	0	0	0	506	524	
14	0	0	0	0	512	518	
15	0	0	0	0	515	511	
0	0	0	0	0	515	510	
1	0	0	0	0	525	509	
2	0	0	0	0	535	508	
3	0	0	0	0	531	506	
4	0	0	0	0	523	504	
5	0	0	0	0	515	502	
6	0	0	0	0	508	506	
7	0	0	0	0	503	504	
8	0	0	0	0	505	503	
9	0	0	0	0	510	501	
10	0	0	0	0	514	494	
11	0	0	0	0	514	498	
12	0	0	0	0	517	501	
13	0	0	0	0	511	502	
14	0	0	0	0	503	507	
15	0	0	0	0	492	519	
0	0	0	0	0	496	525	
1	0	0	0	0	497	523	
2	0	0	0	0	501	520	
3	0	0	0	0	503	514	
4	0	0	0	0	510	510	
5	0	0	0	0	514	510	
6	0	0	0	0	518	506	
7	0	0	0	0	515	504	
8	0	0	0	0	517	499	
9	0	0	0	0	520	501	
10	0	0	0	0	523	505	
11	0	0	0	0	520	502	
12	0	0	0	0	514	501	
13	0	0	0	0	518	500	
14	0	0	0	0	515	494	
15	0	0	0	0	515	496	
0	0	0	0	0	515	501	
1	0	0	0	0	513	503	
2	0	0	0	0	508	510	
3	0	0	0	0	502	524	
4	0	0	0	0	503	526	
5	0	0	0	0	508	523	
6	0	0	0	0	509	518	
7	0	0	0	0	513	515	
8	0	0	0	0	519	509	
9	0	0	0	0	526	507	
10	0	0	0	0	529	506	
11	0	0	0	0	523	504	
12	0	0	0	0	518	503	
13	0	0	0	0	515	506	
14	0	0	0	0	510	504	
15	0	0	0	0	505	502	
0	0	0	0	0	500	500	
1	0	0	0	0	507	497	
2	0	0	0	0	507	492	
3	0	0	0	0	508	498	
4	0	0	0	0	506	505	
5	0	0	0	0	512	504	
6	0	0	0	0	507	509	
7	0	0	0	0	499	522	
8	0	0	0	0	499	525	
9	0	0	0	0	502	522	
10	0	0	0	0	508	516	
11	0	0	0	0	512	510	
12	0	0	0	0	515	506	
13	0	0	0	0	518	505	
14	0	0	0	0	524	506	
15	0	0	0	0	525	504	
0	0	0	0	0	522	503	
1	0	0	0	0	516	504	
2	0	0	0	0	514	507	
3	0	0	0	0	510	505	
4	0	0	0	0	507	502	
5	0	0	0	0	507	499	
6	0	0	0	0	511	489	
7	0	0	0	0	510	497	
8	0	0	0	0	510	502	
9	0	0	0	0	513	504	
10	0	0	0	0	510	511	
11	0	0	0	0	503	523	
12	0	0	0	0	505	529	
13	0	0	0	0	506	524	
14	0	0	0	0	508	519	
15	0	0	0	0	511	513	
0	0	0	0	0	513	507	
1	0	0	0	0	514	506	
2	0	0	0	0	520	506	
3	0	0	0	0	523	502	
4	0	0	0	0	522	501	
5	0	0	0	0	517	502	
6	0	0	0	0	513	506	
7	0	0	0	0	512	505	
8	0	0	0	0	514	504	
9	0	0	0	0	518	500	
10	0	0	0	0	516	493	
11	0	0	0	0	513	496	
12	0	0	0	0	507	501	
13	0	0	0	0	508	502	
14	0	0	0	0	503	508	
15	0	0	0	0	497	522	
0	0	0	0	0	497	529	
1	0	0	0	0	504	523	
2	0	0	0	0	506	518	
3	0	0	0	0	510	512	
4	0	0	0	0	517	507	
5	0	0	0	0	522	508	
6	0	0	0	0	521	509	
7	0	0	0	0	524	508	
8	0	0	0	0	523	504	
9	0	0	0	0	520	504	
10	0	0	0	0	515	504	
11	0	0	0	0	512	504	
12	0	0	0	0	504	502	
13	0	0	0	0	507	497	
14	0	0	0	0	507	492	
15	0	0	0	0	508	500	
0	0	0	0	0	509	500	
1	0	0	0	0	513	504	
2	0	0	0	0	509	508	
3	0	0	0	0	503	522	
4	0	0	0	0	504	523	
5	0	0	0	0	510	524	
6	0	0	0	0	515	518	
7	0	0	0	0	515	512	
8	0	0	0	0	516	508	
9	0	0	0	0	520	507	
10	0	0	0	0	522	506	
11	0	0	0	0	520	503	
12	0	0	0	0	516	503	
13	0	0	0	0	528	503	
14	0	0	0	0	537	505	
15	0	0	0	0	527	504	
0	0	0	0	0	514	504	
1	0	0	0	0	508	500	
2	0	0	0	0	501	494	
3	0	0	0	0	499	497	
4	0	0	0	0	497	503	
5	0	0	0	0	505	501	
6	0	0	0	0	506	508	
7	0	0	0	0	508	524	
8	0	0	0	0	510	527	
9	0	0	0	0	511	522	
10	0	0	0	0	507	516	
11	0	0	0	0	500	512	
12	0	0	0	0	495	509	
13	0	0	0	0	489	510	
14	0	0	0	0	491	505	
15	0	0	0	0	498	501	
0	0	0	0	0	512	499	
1	0	0	0	0	513	501	
2	0	0	0	0	512	506	
3	0	0	0	0	512	507	
4	0	0	0	0	516	503	
5	0	0	0	0	526	499	
6	0	0	0	0	529	492	
7	0	0	0	0	525	497	
8	0	0	0	0	517	504	
9	0	0	0	0	518	506	
10	0	0	0	0	511	512	
11	0	0	0	0	503	524	
12	0	0	0	0	504	526	
13	0	0	0	0	507	520	
14	0	0	0	0	509	516	
15	0	0	0	0	514	511	
0	0	0	0	0	517	505	
1	0	0	0	0	520	507	
2	0	0	0	0	521	507	
3	0	0	0	0	520	506	
4	0	0	0	0	520	502	
5	0	0	0	0	518	503	
6	0	0	0	0	517	504	
7	0	0	0	0	516	504	
8	0	0	0	0	529	501	
9	0	0	0	0	553	499	
10	0	0	0	0	540	491	
11	0	0	0	0	524	497	
12	0	0	0	0	527	502	
13	0	0	0	0	524	504	
14	0	0	0	0	497	509	
15	0	0	0	0	465	522	
0	0	0	0	0	458	525	
1	0	0	0	0	460	521	
2	0	0	0	0	462	518	
3	0	0	0	0	473	512	
4	0	0	0	0	487	511	
5	0	0	0	0	502	509	
6	0	0	0	0	514	506	
7	0	0	0	0	529	504	
8	0	0	0	0	535	503	
9	0	0	0	0	534	504	
10	0	0	0	0	532	505	
11	0	0	0	0	527	504	
12	0	0	0	0	521	502	
13	0	0	0	0	519	498	
14	0	0	0	0	517	494	
15	0	0	0	0	517	498	
0	0	0	0	0	515	503	
1	0	0	0	0	518	505	
2	0	0	0	0	520	511	
3	0	0	0	0	515	524	
4	0	0	0	0	511	526	
5	0	0	0	0	509	524	
6	0	0	0	0	507	514	
7	0	0	0	0	510	511	
8	0	0	0	0	506	506	
9	0	0	0	0	508	507	
10	0	0	0	0	510	506	
11	0	0	0	0	515	505	
12	0	0	0	0	521	502	
13	0	0	0	0	527	503	
14	0	0	0	0	528	506	
15	0	0	0	0	521	506	
0	0	0	0	0	516	504	
1	0	0	0	0	511	499	
2	0	0	0	0	509	493	
3	0	0	0	0	501	498	
4	0	0	0	0	496	502	
5	0	0	0	0	503	504	
6	0	0	0	0	504	507	
7	0	0	0	0	505	521	
8	0	0	0	0	509	528	
9	0	0	0	0	511	524	
10	0	0	0	0	511	516	
11	0	0	0	0	511	512	
12	0	0	0	0	514	505	
13	0	0	0	0	515	507	
14	0	0	0	0	514	503	
15	0	0	0	0	513	504	
0	0	0	0	0	515	502	
1	0	0	0	0	517	504	
2	0	0	0	0	514	504	
3	0	0	0	0	511	502	
4	0	0	0	0	514	502	
5	0	0	0	0	520	499	
6	0	0	0	0	518	490	
7	0	0	0	0	512	499	
8	0	0	0	0	504	503	
9	0	0	0	0	503	503	
10	0	0	0	0	503	508	
11	0	0	0	0	497	523	
12	0	0	0	0	501	525	
13	0	0	0	0	508	523	
14	0	0	0	0	512	520	
15	0	0	0	0	515	513	
0	0	0	0	0	518	509	
1	0	0	0	0	521	508	
2	0	0	0	0	522	508	
3	0	0	0	0	518	503	
4	0	0	0	0	512	502	
5	0	0	0	0	512	502	
6	0	0	0	0	512	506	
7	0	0	0	0	511	505	
8	0	0	0	0	510	503	
9	0	0	0	0	513	497	
10	0	0	0	0	512	490	
11	0	0	0	0	510	496	
12	0	0	0	0	504	501	
13	0	0	0	0	512	505	
14	0	0	0	0	536	510	
15	0	0	0	0	523	521	
0	0	0	0	0	515	526	
1	0	0	0	0	511	524	
2	0	0	0	0	518	519	
3	0	0	0	0	517	514	
4	0	0	0	0	506	509	
5	0	0	0	0	504	507	
6	0	0	0	0	503	507	
7	0	0	0	0	504	503	
8	0	0	0	0	503	502	
9	0	0	0	0	501	506	
10	0	0	0	0	499	507	
11	0	0	0	0	499	505	
12	0	0	0	0	505	504	
13	0	0	0	0	510	497	
14	0	0	0	0	508	493	
15	0	0	0	0	509	495	
0	0	0	0	0	511	497	
1	0	0	0	0	518	502	
2	0	0	0	0	516	508	
3	0	0	0	0	512	523	
4	0	0	0	0	523	524	
5	0	0	0	0	534	519	
6	0	0	0	0	534	514	
7	0	0	0	0	526	511	
8	0	0	0	0	520	507	
9	0	0	0	0	512	507	
10	0	0	0	0	504	508	
11	0	0	0	0	504	507	
12	0	0	0	0	504	505	
13	0	0	0	0	505	510	
14	0	0	0	0	511	508	
15	0	0	0	0	513	505	
0	0	0	0	0	514	504	
1	0	0	0	0	514	500	
2	0	0	0	0	515	494	
3	0	0	0	0	512	499	
4	0	0	0	0	510	503	
5	0	0	0	0	511	500	
6	0	0	0	0	506	506	
7	0	0	0	0	502	524	
8	0	0	0	0	499	524	
9	0	0	0	0	507	521	
10	0	0	0	0	506	515	
11	0	0	0	0	511	512	
12	0	0	0	0	513	509	
13	0	0	0	0	519	508	
14	0	0	0	0	516	505	
15	0	0	0	0	518	503	
0	0	0	0	0	517	503	
1	0	0	0	0	519	502	
2	0	0	0	0	515	503	
3	0	0	0	0	514	502	
4	0	0	0	0	521	502	
5	0	0	0	0	524	496	
6	0	0	0	0	521	493	
7	0	0	0	0	515	499	
8	0	0	0	0	509	500	
9	0	0	0	0	510	503	
10	0	0	0	0	502	509	
11	0	0	0	0	494	524	
12	0	0	0	0	496	526	
13	0	0	0	0	504	523	
14	0	0	0	0	506	518	
15	0	0	0	0	513	514	
0	0	0	0	0	517	510	
1	0	0	0	0	522	510	
2	0	0	0	0	518	507	
3	0	0	0	0	517	504	
4	0	0	0	0	522	499	
5	0	0	0	0	527	500	
6	0	0	0	0	534	507	
7	0	0	0	0	529	502	
8	0	0	0	0	517	504	
9	0	0	0	0	507	497	
10	0	0	0	0	500	493	
11	0	0	0	0	494	499	
12	0	0	0	0	491	501	
13	0	0	0	0	497	505	
14	0	0	0	0	497	514	
15	0	0	0	0	493	524	
0	0	0	0	0	499	526	
1	0	0	0	0	508	521	
2	0	0	0	0	515	514	
3	0	0	0	0	515	510	
4	0	0	0	0	514	508	
5	0	0	0	0	515	506	
6	0	0	0	0	512	504	
7	0	0	0	0	516	502	
8	0	0	0	0	521	501	
9	0	0	0	0	525	505	
10	0	0	0	0	520	507	
11	0	0	0	0	516	504	
12	0	0	0	0	516	503	
13	0	0	0	0	527	499	
14	0	0	0	0	537	495	
15	0	0	0	0	533	498	
0	0	0	0	0	521	503	
1	0	0	0	0	505	503	
2	0	0	0	0	499	512	
3	0	0	0	0	492	523	
4	0	0	0	0	511	522	
5	0	0	0	0	517	519	
6	0	0	0	0	508	519	
7	0	0	0	0	501	512	
8	0	0	0	0	496	511	
9	0	0	0	0	495	508	
10	0	0	0	0	496	506	
11	0	0	0	0	496	503	
12	0	0	0	0	499	501	
13	0	0	0	0	505	502	
14	0	0	0	0	508	503	
15	0	0	0	0	511	505	
0	0	0	0	0	516	503	
1	0	0	0	0	521	498	
2	0	0	0	0	516	494	
3	0	0	0	0	519	496	
4	0	0	0	0	517	501	
5	0	0	0	0	520	504	
6	0	0	0	0	511	511	
7	0	0	0	0	510	522	
8	0	0	0	0	511	523	
9	0	0	0	0	513	521	
10	0	0	0	0	513	517	
11	0	0	0	0	513	513	
12	0	0	0	0	515	508	
13	0	0	0	0	516	509	
14	0	0	0	0	518	506	
15	0	0	0	0	519	506	
0	0	0	0	0	524	505	
1	0	0	0	0	523	505	
2	0	0	0	0	520	508	
3	0	0	0	0	515	505	
4	0	0	0	0	512	502	
5	0	0	0	0	514	496	
6	0	0	0	0	511	491	
7	0	0	0	0	507	496	
8	0	0	0	0	505	501	
9	0	0	0	0	507	502	
10	0	0	0	0	503	508	
11	0	0	0	0	497	523	
12	0	0	0	0	496	523	
13	0	0	0	0	504	522	
14	0	0	0	0	511	519	
15	0	0	0	0	515	511	
0	0	0	0	0	519	508	
1	0	0	0	0	524	507	
2	0	0	0	0	524	506	
3	0	0	0	0	541	504	
4	0	0	0	0	537	502	
5	0	0	0	0	523	507	
6	0	0	0	0	520	508	
7	0	0	0	0	519	507	
8	0	0	0	0	506	505	
9	0	0	0	0	497	499	
10	0	0	0	0	494	494	
11	0	0	0	0	497	499	
12	0	0	0	0	499	502	
13	0	0	0	0	506	504	
14	0	0	0	0	507	509	
15	0	0	0	0	498	526	
0	0	0	0	0	496	527	
1	0	0	0	0	499	521	
2	0	0	0	0	506	515	
3	0	0	0	0	510	511	
4	0	0	0	0	513	506	
5	0	0	0	0	516	505	
6	0	0	0	0	512	505	
7	0	0	0	0	513	503	
8	0	0	0	0	517	500	
9	0	0	0	0	514	503	
10	0	0	0	0	514	504	
11	0	0	0	0	511	503	
12	0	0	0	0	511	501	
13	0	0	0	0	520	495	
14	0	0	0	0	518	491	
15	0	0	0	0	524	496	
0	0	0	0	0	524	500	
1	0	0	0	0	523	503	
2	0	0	0	0	515	511	
3	0	0	0	0	512	525	
4	0	0	0	0	508	530	
5	0	0	0	0	502	523	
6	0	0	0	0	501	518	
7	0	0	0	0	503	512	
8	0	0	0	0	507	510	
9	0	0	0	0	510	509	
10	0	0	0	0	513	508	
11	0	0	0	0	523	502	
12	0	0	0	0	524	501	
13	0	0	0	0	523	503	
14	0	0	0	0	524	504	
15	0	0	0	0	517	503	
0	0	0	0	0	512	503	
1	0	0	0	0	512	498	
2	0	0	0	0	510	493	
3	0	0	0	0	504	496	
4	0	0	0	0	502	500	
5	0	0	0	0	506	503	
6	0	0	0	0	501	512	
7	0	0	0	0	498	524	
8	0	0	0	0	498	526	
9	0	0	0	0	503	523	
10	0	0	0	0	508	515	
11	0	0	0	0	511	509	
12	0	0	0	0	518	507	
13	0	0	0	0	523	509	
14	0	0	0	0	524	508	
15	0	0	0	0	521	505	
0	0	0	0	0	518	503	
1	0	0	0	0	515	506	
2	0	0	0	0	514	506	
3	0	0	0	0	509	505	
4	0	0	0	0	512	503	
5	0	0	0	0	516	498	
6	0	0	0	0	515	494	
7	0	0	0	0	510	497	
8	0	0	0	0	507	502	
9	0	0	0	0	511	506	
10	0	0	0	0	508	510	
11	0	0	0	0	501	525	
12	0	0	0	0	506	524	
13	0	0	0	0	513	520	
14	0	0	0	0	515	516	
15	0	0	0	0	515	514	
0	0	0	0	0	515	510	
1	0	0	0	0	521	508	
2	0	0	0	0	518	506	
3	0	0	0	0	515	505	
4	0	0	0	0	516	502	
5	0	0	0	0	516	501	
6	0	0	0	0	514	505	
7	0	0	0	0	509	503	
8	0	0	0	0	507	501	
9	0	0	0	0	508	497	
10	0	0	0	0	500	493	
11	0	0	0	0	504	497	
12	0	0	0	0	503	503	
13	0	0	0	0	508	504	
14	0	0	0	0	505	511	
15	0	0	0	0	502	521	
0	0	0	0	0	511	525	
1	0	0	0	0	514	523	
2	0	0	0	0	525	518	
3	0	0	0	0	543	513	
4	0	0	0	0	557	507	
5	0	0	0	0	545	508	
6	0	0	0	0	523	506	
7	0	0	0	0	503	503	
8	0	0	0	0	486	500	
9	0	0	0	0	473	501	
10	0	0	0	0	472	503	
11	0	0	0	0	477	504	
12	0	0	0	0	491	502	
13	0	0	0	0	505	499	
14	0	0	0	0	511	496	
15	0	0	0	0	513	497	
0	0	0	0	0	516	503	
1	0	0	0	0	515	501	
2	0	0	0	0	512	512	
3	0	0	0	0	509	524	
4	0	0	0	0	517	525	
5	0	0	0	0	527	519	
6	0	0	0	0	527	515	
7	0	0	0	0	527	510	
8	0	0	0	0	520	508	
9	0	0	0	0	518	507	
10	0	0	0	0	513	509	
11	0	0	0	0	511	504	
12	0	0	0	0	513	503	
13	0	0	0	0	511	503	
14	0	0	0	0	512	504	
15	0	0	0	0	507	503	
0	0	0	0	0	506	504	
1	0	0	0	0	510	498	
2	0	0	0	0	512	495	
3	0	0	0	0	527	499	
4	0	0	0	0	531	502	
5	0	0	0	0	532	498	
6	0	0	0	0	521	508	
7	0	0	0	0	503	522	
8	0	0	0	0	498	522	
9	0	0	0	0	492	523	
10	0	0	0	0	490	518	
11	0	0	0	0	496	513	
12	0	0	0	0	499	508	
13	0	0	0	0	506	507	
14	0	0	0	0	509	506	
15	0	0	0	0	512	505	
0	0	0	0	0	513	501	
1	0	0	0	0	515	504	
2	0	0	0	0	516	508	
3	0	0	0	0	513	505	
4	0	0	0	0	517	504	
5	0	0	0	0	517	496	
6	0	0	0	0	514	493	
7	0	0	0	0	517	496	
8	0	0	0	0	516	500	
9	0	0	0	0	519	503	
10	0	0	0	0	519	511	
11	0	0	0	0	512	525	
12	0	0	0	0	514	525	
13	0	0	0	0	514	522	
14	0	0	0	0	516	518	
15	0	0	0	0	513	513	
0	0	0	0	0	510	511	
1	0	0	0	0	511	513	
2	0	0	0	0	512	508	
3	0	0	0	0	512	504	
4	0	0	0	0	510	504	
5	0	0	0	0	507	503	
6	0	0	0	0	504	506	
7	0	0	0	0	502	505	
8	0	0	0	0	504	503	
9	0	0	0	0	512	497	
10	0	0	0	0	512	490	
11	0	0	0	0	524	494	
12	0	0	0	0	530	502	
13	0	0	0	0	524	504	
14	0	0	0	0	512	510	
15	0	0	0	0	499	525	
0	0	0	0	0	497	525	
1	0	0	0	0	494	518	
2	0	0	0	0	496	516	
3	0	0	0	0	503	510	
4	0	0	0	0	509	508	
5	0	0	0	0	516	508	
6	0	0	0	0	518	507	
7	0	0	0	0	519	504	
8	0	0	0	0	519	502	
9	0	0	0	0	521	506	
10	0	0	0	0	521	507	
11	0	0	0	0	521	502	
12	0	0	0	0	523	501	
13	0	0	0	0	527	496	
14	0	0	0	0	531	492	
15	0	0	0	0	526	496	
0	0	0	0	0	517	505	
1	0	0	0	0	511	504	
2	0	0	0	0	502	512	
3	0	0	0	0	489	525	
4	0	0	0	0	489	527	
5	0	0	0	0	494	523	
6	0	0	0	0	502	514	
7	0	0	0	0	511	509	
8	0	0	0	0	521	506	
9	0	0	0	0	525	507	
10	0	0	0	0	518	507	
11	0	0	0	0	513	503	
12	0	0	0	0	513	504	
13	0	0	0	0	505	506	
14	0	0	0	0	502	507	
15	0	0	0	0	499	504	
0	0	0	0	0	507	504	
1	0	0	0	0	525	496	
2	0	0	0	0	522	492	
3	0	0	0	0	521	496	
4	0	0	0	0	511	503	
5	0	0	0	0	510	504	
6	0	0	0	0	503	509	
7	0	0	0	0	491	526	
8	0	0	0	0	494	528	
9	0	0	0	0	504	522	
10	0	0	0	0	510	515	
11	0	0	0	0	518	509	
12	0	0	0	0	519	505	
13	0	0	0	0	518	509	
14	0	0	0	0	512	510	
15	0	0	0	0	513	504	
0	0	0	0	0	513	504	
1	0	0	0	0	514	507	
2	0	0	0	0	511	504	
3	0	0	0	0	511	502	
4	0	0	0	0	513	500	
5	0	0	0	0	517	497	
6	0	0	0	0	515	494	
7	0	0	0	0	512	495	
8	0	0	0	0	515	499	
9	0	0	0	0	514	501	
10	0	0	0	0	510	509	
11	0	0	0	0	505	524	
12	0	0	0	0	508	526	
13	0	0	0	0	512	521	
14	0	0	0	0	513	515	
15	0	0	0	0	516	512	
0	0	0	0	0	515	509	
1	0	0	0	0	518	508	
2	0	0	0	0	522	508	
3	0	0	0	0	520	506	
4	0	0	0	0	516	504	
5	0	0	0	0	516	506	
6	0	0	0	0	512	506	
7	0	0	0	0	509	507	
8	0	0	0	0	514	502	
9	0	0	0	0	530	497	
10	0	0	0	0	523	493	
11	0	0	0	0	517	498	
12	0	0	0	0	503	500	
13	0	0	0	0	503	504	
14	0	0	0	0	506	510	
15	0	0	0	0	506	523	
0	0	0	0	0	503	526	
1	0	0	0	0	504	521	
2	0	0	0	0	505	516	
3	0	0	0	0	508	509	
4	0	0	0	0	508	509	
5	0	0	0	0	505	508	
6	0	0	0	0	499	507	
7	0	0	0	0	502	504	
8	0	0	0	0	509	502	
9	0	0	0	0	515	504	
10	0	0	0	0	518	506	
11	0	0	0	0	521	503	
12	0	0	0	0	523	500	
13	0	0	0	0	523	497	
14	0	0	0	0	517	495	
15	0	0	0	0	512	499	
0	0	0	0	0	509	503	
1	0	0	0	0	512	508	
2	0	0	0	0	508	513	
3	0	0	0	0	503	524	
4	0	0	0	0	503	524	
5	0	0	0	0	504	519	
6	0	0	0	0	501	515	
7	0	0	0	0	506	510	
8	0	0	0	0	511	507	
9	0	0	0	0	517	507	
10	0	0	0	0	526	506	
11	0	0	0	0	535	504	
12	0	0	0	0	529	502	
13	0	0	0	0	516	505	
14	0	0	0	0	506	507	
15	0	0	0	0	497	506	
0	0	0	0	0	496	504	
1	0	0	0	0	499	499	
2	0	0	0	0	500	494	
3	0	0	0	0	506	495	
4	0	0	0	0	506	500	
5	0	0	0	0	512	501	
6	0	0	0	0	508	510	
7	0	0	0	0	503	523	
8	0	0	0	0	511	524	
9	0	0	0	0	520	521	
10	0	0	0	0	519	514	
11	0	0	0	0	518	511	
12	0	0	0	0	521	507	
13	0	0	0	0	523	507	
14	0	0	0	0	521	507	
15	0	0	0	0	519	505	
0	0	0	0	0	516	504	
1	0	0	0	0	517	505	
2	0	0	0	0	513	505	
3	0	0	0	0	512	504	
4	0	0	0	0	521	500	
5	0	0	0	0	525	497	
6	0	0	0	0	518	492	
7	0	0	0	0	510	498	
8	0	0	0	0	502	506	
9	0	0	0	0	500	504	
10	0	0	0	0	497	509	
11	0	0	0	0	503	525	
12	0	0	0	0	506	525	
13	0	0	0	0	512	520	
14	0	0	0	0	511	517	
15	0	0	0	0	513	513	
0	0	0	0	0	513	507	
1	0	0	0	0	516	508	
2	0	0	0	0	522	507	
3	0	0	0	0	534	501	
4	0	0	0	0	529	501	
5	0	0	0	0	519	504	
6	0	0	0	0	508	505	
7	0	0	0	0	498	503	
8	0	0	0	0	494	504	
9	0	0	0	0	499	499	
10	0	0	0	0	498	496	
11	0	0	0	0	499	500	
12	0	0	0	0	498	504	
13	0	0	0	0	508	504	
14	0	0	0	0	505	510	
15	0	0	0	0	500	521	
0	0	0	0	0	501	521	
1	0	0	0	0	507	519	
2	0	0	0	0	513	515	
3	0	0	0	0	519	509	
4	0	0	0	0	523	508	
5	0	0	0	0	522	505	
6	0	0	0	0	522	505	
7	0	0	0	0	521	506	
8	0	0	0	0	524	506	
9	0	0	0	0	522	508	
10	0	0	0	0	518	511	
11	0	0	0	0	513	505	
12	0	0	0	0	515	499	
13	0	0	0	0	517	490	
14	0	0	0	0	513	490	
15	0	0	0	0	512	497	
0	0	0	0	0	508	501	
1	0	0	0	0	510	503	
2	0	0	0	0	505	511	
3	0	0	0	0	501	526	
4	0	0	0	0	504	527	
5	0	0	0	0	511	524	
6	0	0	0	0	514	517	
7	0	0	0	0	518	512	
8	0	0	0	0	518	509	
9	0	0	0	0	521	508	
10	0	0	0	0	520	505	
11	0	0	0	0	521	504	
12	0	0	0	0	524	504	
13	0	0	0	0	519	505	
14	0	0	0	0	515	507	
15	0	0	0	0	508	504	
0	0	0	0	0	505	504	
1	0	0	0	0	504	499	
2	0	0	0	0	501	495	
3	0	0	0	0	502	496	
4	0	0	0	0	500	501	
5	0	0	0	0	504	501	
6	0	0	0	0	500	512	
7	0	0	0	0	509	524	
8	0	0	0	0	537	526	
9	0	0	0	0	540	519	
10	0	0	0	0	523	515	
11	0	0	0	0	510	509	
12	0	0	0	0	498	505	
13	0	0	0	0	488	507	
14	0	0	0	0	487	504	
15	0	0	0	0	488	502	
0	0	0	0	0	493	503	
1	0	0	0	0	504	505	
2	0	0	0	0	511	507	
3	0	0	0	0	515	505	
4	0	0	0	0	521	503	
5	0	0	0	0	524	496	
6	0	0	0	0	522	492	
7	0	0	0	0	520	497	
8	0	0	0	0	517	504	
9	0	0	0	0	516	504	
10	0	0	0	0	510	513	
11	0	0	0	0	504	523	
12	0	0	0	0	506	523	
13	0	0	0	0	513	521	
14	0	0	0	0	515	518	
15	0	0	0	0	519	512	
0	0	0	0	0	521	506	
1	0	0	0	0	520	507	
2	0	0	0	0	518	505	
3	0	0	0	0	519	505	
4	0	0	0	0	520	502	
5	0	0	0	0	516	505	
6	0	0	0	0	512	507	
7	0	0	0	0	508	504	
8	0	0	0	0	510	501	
9	0	0	0	0	513	497	
10	0	0	0	0	520	495	
11	0	0	0	0	524	499	
12	0	0	0	0	513	504	
13	0	0	0	0	505	506	
14	0	0	0	0	495	511	
15	0	0	0	0	490	526	
0	0	0	0	0	493	524	
1	0	0	0	0	496	520	
2	0	0	0	0	504	514	
3	0	0	0	0	508	511	
4	0	0	0	0	515	509	
5	0	0	0	0	520	508	
6	0	0	0	0	523	508	
7	0	0	0	0	521	504	
8	0	0	0	0	521	501	
9	0	0	0	0	521	504	
10	0	0	0	0	516	503	
11	0	0	0	0	515	502	
12	0	0	0	0	510	497	
13	0	0	0	0	516	494	
14	0	0	0	0	517	494	
15	0	0	0	0	523	499	
0	0	0	0	0	517	503	
1	0	0	0	0	518	502	
2	0	0	0	0	511	511	
3	0	0	0	0	504	526	
4	0	0	0	0	502	526	
5	0	0	0	0	504	523	
6	0	0	0	0	504	518	
7	0	0	0	0	506	513	
8	0	0	0	0	508	509	
9	0	0	0	0	514	510	
10	0	0	0	0	513	506	
11	0	0	0	0	508	503	
12	0	0	0	0	513	507	
13	0	0	0	0	513	505	
14	0	0	0	0	516	506	
15	0	0	0	0	514	501	
0	0	0	0	0	517	499	
1	0	0	0	0	519	492	
2	0	0	0	0	512	489	
3	0	0	0	0	508	499	
4	0	0	0	0	512	503	
5	0	0	0	0	524	503	
6	0	0	0	0	512	512	
7	0	0	0	0	501	524	
8	0	0	0	0	499	526	
9	0	0	0	0	500	521	
10	0	0	0	0	501	518	
11	0	0	0	0	504	513	
12	0	0	0	0	504	509	
13	0	0	0	0	512	507	
14	0	0	0	0	517	505	
15	0	0	0	0	519	502	
0	0	0	0	0	518	502	
1	0	0	0	0	513	504	
2	0	0	0	0	512	505	
3	0	0	0	0	511	502	
4	0	0	0	0	512	502	
5	0	0	0	0	512	497	
6	0	0	0	0	513	494	
7	0	0	0	0	512	498	
8	0	0	0	0	506	504	
9	0	0	0	0	508	506	
10	0	0	0	0	513	512	
11	0	0	0	0	502	524	
12	0	0	0	0	505	523	
13	0	0	0	0	510	520	
14	0	0	0	0	508	517	
15	0	0	0	0	512	511	
0	0	0	0	0	513	508	
1	0	0	0	0	520	505	
2	0	0	0	0	520	503	
3	0	0	0	0	523	503	
4	0	0	0	0	521	501	
5	0	0	0	0	519	504	
6	0	0	0	0	519	507	
7	0	0	0	0	519	504	
8	0	0	0	0	518	501	
9	0	0	0	0	519	495	
10	0	0	0	0	512	494	
11	0	0	0	0	511	496	
12	0	0	0	0	507	502	
13	0	0	0	0	507	505	
14	0	0	0	0	501	513	
15	0	0	0	0	497	526	
0	0	0	0	0	499	525	
1	0	0	0	0	507	522	
2	0	0	0	0	513	516	
3	0	0	0	0	513	512	
4	0	0	0	0	514	510	
5	0	0	0	0	518	509	
6	0	0	0	0	519	506	
7	0	0	0	0	518	504	
8	0	0	0	0	515	502	
9	0	0	0	0	514	504	
10	0	0	0	0	511	503	
11	0	0	0	0	511	504	
12	0	0	0	0	511	499	
13	0	0	0	0	513	495	
14	0	0	0	0	512	492	
15	0	0	0	0	512	497	
0	0	0	0	0	512	501	
1	0	0	0	0	519	504	
2	0	0	0	0	508	513	
3	0	0	0	0	494	527	
4	0	0	0	0	496	526	
5	0	0	0	0	501	521	
6	0	0	0	0	501	516	
7	0	0	0	0	505	514	
8	0	0	0	0	509	507	
9	0	0	0	0	516	507	
10	0	0	0	0	523	505	
11	0	0	0	0	520	503	
12	0	0	0	0	521	501	
13	0	0	0	0	519	505	
14	0	0	0	0	518	506	
15	0	0	0	0	514	504	
0	0	0	0	0	514	500	
1	0	0	0	0	516	497	
2	0	0	0	0	511	491	
3	0	0	0	0	515	497	
4	0	0	0	0	516	505	
5	0	0	0	0	518	506	
6	0	0	0	0	510	515	
7	0	0	0	0	499	523	
8	0	0	0	0	502	523	
9	0	0	0	0	505	520	
10	0	0	0	0	505	517	
11	0	0	0	0	510	511	
12	0	0	0	0	511	508	
13	0	0	0	0	517	507	
14	0	0	0	0	518	505	
15	0	0	0	0	517	501	
0	0	0	0	0	515	501	
1	0	0	0	0	513	505	
2	0	0	0	0	512	506	
3	0	0	0	0	511	504	
4	0	0	0	0	511	499	
5	0	0	0	0	513	497	
6	0	0	0	0	514	493	
7	0	0	0	0	523	502	
8	0	0	0	0	520	508	
9	0	0	0	0	515	504	
10	0	0	0	0	505	513	
11	0	0	0	0	497	528	
12	0	0	0	0	498	524	
13	0	0	0	0	500	521	
14	0	0	0	0	504	515	
15	0	0	0	0	509	511	
0	0	0	0	0	513	508	
1	0	0	0	0	513	508	
2	0	0	0	0	515	505	
3	0	0	0	0	514	505	
4	0	0	0	0	517	502	
5	0	0	0	0	515	505	
6	0	0	0	0	517	505	
7	0	0	0	0	514	502	
8	0	0	0	0	513	499	
9	0	0	0	0	517	495	
10	0	0	0	0	515	489	
11	0	0	0	0	512	495	
12	0	0	0	0	509	502	
13	0	0	0	0	506	507	
14	0	0	0	0	504	514	
15	0	0	0	0	500	525	
0	0	0	0	0	507	525	
1	0	0	0	0	511	521	
2	0	0	0	0	513	516	
3	0	0	0	0	518	511	
4	0	0	0	0	522	510	
5	0	0	0	0	523	508	
6	0	0	0	0	521	506	
7	0	0	0	0	518	504	
8	0	0	0	0	514	503	
9	0	0	0	0	509	504	
10	0	0	0	0	503	508	
11	0	0	0	0	501	504	
12	0	0	0	0	512	502	
13	0	0	0	0	527	494	
14	0	0	0	0	527	492	
15	0	0	0	0	515	495	
0	0	0	0	0	507	501	
1	0	0	0	0	504	503	
2	0	0	0	0	494	513	
3	0	0	0	0	491	525	
4	0	0	0	0	504	525	
5	0	0	0	0	520	521	
6	0	0	0	0	531	516	
7	0	0	0	0	528	515	
8	0	0	0	0	516	512	
9	0	0	0	0	507	509	
10	0	0	0	0	505	508	
11	0	0	0	0	501	506	
12	0	0	0	0	496	504	
13	0	0	0	0	497	504	
14	0	0	0	0	500	504	
15	0	0	0	0	502	499	
0	0	0	0	0	510	499	
1	0	0	0	0	518	493	
2	0	0	0	0	520	495	
3	0	0	0	0	524	496	
4	0	0	0	0	530	504	
5	0	0	0	0	529	503	
6	0	0	0	0	514	512	
7	0	0	0	0	505	522	
8	0	0	0	0	505	524	
9	0	0	0	0	505	520	
10	0	0	0	0	507	515	
11	0	0	0	0	511	511	
12	0	0	0	0	514	510	
13	0	0	0	0	517	507	
14	0	0	0	0	518	509	
15	0	0	0	0	514	504	
0	0	0	0	0	514	506	
1	0	0	0	0	513	508	
2	0	0	0	0	508	507	
3	0	0	0	0	506	501	
4	0	0	0	0	504	499	
5	0	0	0	0	511	493	
6	0	0	0	0	510	491	
7	0	0	0	0	514	496	
8	0	0	0	0	512	505	
9	0	0	0	0	513	502	
10	0	0	0	0	509	512	
11	0	0	0	0	504	525	
12	0	0	0	0	507	524	
13	0	0	0	0	513	520	
14	0	0	0	0	513	515	
15	0	0	0	0	519	512	
0	0	0	0	0	523	507	
1	0	0	0	0	525	505	
2	0	0	0	0	523	508	
3	0	0	0	0	520	502	
4	0	0	0	0	515	504	
5	0	0	0	0	512	505	
6	0	0	0	0	507	508	
7	0	0	0	0	508	505	
8	0	0	0	0	508	502	
9	0	0	0	0	513	496	
10	0	0	0	0	512	494	
11	0	0	0	0	506	499	
12	0	0	0	0	503	504	
13	0	0	0	0	506	505	
14	0	0	0	0	500	514	
15	0	0	0	0	498	524	
0	0	0	0	0	502	524	
1	0	0	0	0	507	521	
2	0	0	0	0	513	515	
3	0	0	0	0	515	508	
4	0	0	0	0	515	507	
5	0	0	0	0	518	507	
6	0	0	0	0	518	506	
7	0	0	0	0	519	503	
8	0	0	0	0	519	501	
9	0	0	0	0	521	504	
10	0	0	0	0	527	504	
11	0	0	0	0	528	506	
12	0	0	0	0	524	504	
13	0	0	0	0	525	497	
14	0	0	0	0	530	493	
15	0	0	0	0	521	498	
0	0	0	0	0	507	504	
1	0	0	0	0	500	506	
2	0	0	0	0	485	515	
3	0	0	0	0	491	527	
4	0	0	0	0	496	526	
5	0	0	0	0	499	520	
6	0	0	0	0	505	515	
7	0	0	0	0	506	511	
8	0	0	0	0	503	509	
9	0	0	0	0	502	509	
10	0	0	0	0	495	505	
11	0	0	0	0	493	502	
12	0	0	0	0	503	502	
13	0	0	0	0	509	503	
14	0	0	0	0	515	503	
15	0	0	0	0	517	500	
0	0	0	0	0	519	498	
1	0	0	0	0	528	494	
2	0	0	0	0	525	494	
3	0	0	0	0	523	500	
4	0	0	0	0	518	503	
5	0	0	0	0	516	505	
6	0	0	0	0	509	514	
7	0	0	0	0	503	527	
8	0	0	0	0	506	526	
9	0	0	0	0	515	522	
10	0	0	0	0	518	516	
11	0	0	0	0	517	511	
12	0	0	0	0	517	508	
13	0	0	0	0	515	508	
14	0	0	0	0	514	508	
15	0	0	0	0	518	504	
0	0	0	0	0	529	501	
1	0	0	0	0	523	504	
2	0	0	0	0	515	504	
3	0	0	0	0	505	504	
4	0	0	0	0	503	500	
5	0	0	0	0	504	495	
6	0	0	0	0	505	493	
7	0	0	0	0	504	495	
8	0	0	0	0	505	504	
9	0	0	0	0	511	503	
10	0	0	0	0	506	512	
11	0	0	0	0	503	524	
12	0	0	0	0	506	524	
13	0	0	0	0	508	521	
14	0	0	0	0	510	515	
15	0	0	0	0	511	512	
0	0	0	0	0	512	509	
1	0	0	0	0	515	507	
2	0	0	0	0	513	507	
3	0	0	0	0	515	504	
4	0	0	0	0	519	502	
5	0	0	0	0	517	503	
6	0	0	0	0	516	503	
7	0	0	0	0	517	504	
8	0	0	0	0	518	505	
9	0	0	0	0	520	497	
10	0	0	0	0	516	495	
11	0	0	0	0	514	498	
12	0	0	0	0	513	504	
13	0	0	0	0	526	504	
14	0	0	0	0	523	513	
15	0	0	0	0	520	526	
0	0	0	0	0	513	526	
1	0	0	0	0	507	523	
2	0	0	0	0	500	515	
3	0	0	0	0	496	512	
4	0	0	0	0	494	510	
5	0	0	0	0	499	506	
6	0	0	0	0	503	505	
7	0	0	0	0	509	503	
8	0	0	0	0	512	503	
9	0	0	0	0	513	505	
10	0	0	0	0	515	503	
11	0	0	0	0	512	503	
12	0	0	0	0	508	502	
13	0	0	0	0	512	495	
14	0	0	0	0	510	493	
15	0	0	0	0	514	495	
0	0	0	0	0	520	501	
1	0	0	0	0	520	501	
2	0	0	0	0	511	513	
3	0	0	0	0	501	525	
4	0	0	0	0	505	526	
5	0	0	0	0	515	523	
6	0	0	0	0	519	518	
7	0	0	0	0	520	514	
8	0	0	0	0	516	512	
9	0	0	0	0	518	510	
10	0	0	0	0	518	508	
11	0	0	0	0	513	505	
12	0	0	0	0	511	504	
13	0	0	0	0	510	507	
14	0	0	0	0	508	505	
15	0	0	0	0	508	502	
0	0	0	0	0	512	503	
1	0	0	0	0	512	492	
2	0	0	0	0	508	491	
3	0	0	0	0	508	498	
4	0	0	0	0	505	503	
5	0	0	0	0	506	500	
6	0	0	0	0	501	510	
7	0	0	0	0	497	522	
8	0	0	0	0	503	522	
9	0	0	0	0	509	521	
10	0	0	0	0	511	516	
11	0	0	0	0	517	512	
12	0	0	0	0	518	508	
13	0	0	0	0	521	507	
14	0	0	0	0	523	506	
15	0	0	0	0	520	503	
0	0	0	0	0	515	500	
1	0	0	0	0	516	504	
2	0	0	0	0	516	503	
3	0	0	0	0	516	505	
4	0	0	0	0	516	504	
5	0	0	0	0	519	495	
6	0	0	0	0	516	494	
7	0	0	0	0	515	501	
8	0	0	0	0	508	503	
9	0	0	0	0	512	504	
10	0	0	0	0	506	512	
11	0	0	0	0	500	524	
12	0	0	0	0	504	527	
13	0	0	0	0	508	522	
14	0	0	0	0	509	515	
15	0	0	0	0	511	512	
0	0	0	0	0	513	506	
1	0	0	0	0	522	508	
2	0	0	0	0	520	508	
3	0	0	0	0	519	504	
4	0	0	0	0	518	504	
5	0	0	0	0	517	504	
6	0	0	0	0	515	504	
7	0	0	0	0	511	502	
8	0	0	0	0	513	501	
9	0	0	0	0	526	493	
10	0	0	0	0	527	492	
11	0	0	0	0	518	500	
12	0	0	0	0	507	505	
13	0	0	0	0	500	505	
14	0	0	0	0	487	516	
15	0	0	0	0	477	526	
0	0	0	0	0	480	526	
1	0	0	0	0	489	521	
2	0	0	0	0	501	514	
3	0	0	0	0	508	510	
4	0	0	0	0	510	508	
5	0	0	0	0	518	507	
6	0	0	0	0	523	504	
7	0	0	0	0	522	504	
8	0	0	0	0	519	503	
9	0	0	0	0	523	503	
10	0	0	0	0	528	504	
11	0	0	0	0	522	501	
12	0	0	0	0	523	501	
13	0	0	0	0	521	493	
14	0	0	0	0	521	493	
15	0	0	0	0	516	502	
0	0	0	0	0	509	507	
1	0	0	0	0	506	503	
2	0	0	0	0	502	513	
3	0	0	0	0	499	527	
4	0	0	0	0	502	524	
5	0	0	0	0	506	520	
6	0	0	0	0	508	514	
7	0	0	0	0	512	510	
8	0	0	0	0	512	508	
9	0	0	0	0	516	509	
10	0	0	0	0	515	505	
11	0	0	0	0	513	503	
12	0	0	0	0	511	500	
13	0	0	0	0	511	501	
14	0	0	0	0	513	502	
15	0	0	0	0	515	502	
0	0	0	0	0	519	500	
1	0	0	0	0	519	497	
2	0	0	0	0	522	496	
3	0	0	0	0	534	499	
4	0	0	0	0	529	505	
5	0	0	0	0	519	507	
6	0	0	0	0	505	516	
7	0	0	0	0	496	527	
8	0	0	0	0	492	527	
9	0	0	0	0	493	523	
10	0	0	0	0	492	518	
11	0	0	0	0	499	512	
12	0	0	0	0	509	506	
13	0	0	0	0	511	508	
14	0	0	0	0	516	506	
15	0	0	0	0	518	502	
0	0	0	0	0	515	502	
1	0	0	0	0	519	503	
2	0	0	0	0	517	505	
3	0	0	0	0	516	503	
4	0	0	0	0	515	502	
5	0	0	0	0	516	495	
6	0	0	0	0	514	494	
7	0	0	0	0	512	498	
8	0	0	0	0	516	504	
9	0	0	0	0	517	504	
10	0	0	0	0	513	513	
11	0	0	0	0	519	523	
12	0	0	0	0	521	524	
13	0	0	0	0	520	519	
14	0	0	0	0	516	515	
15	0	0	0	0	512	510	
0	0	0	0	0	508	509	
1	0	0	0	0	506	510	
2	0	0	0	0	503	511	
3	0	0	0	0	499	505	
4	0	0	0	0	499	504	
5	0	0	0	0	503	505	
6	0	0	0	0	507	505	
7	0	0	0	0	514	504	
8	0	0	0	0	515	502	
9	0	0	0	0	513	496	
10	0	0	0	0	510	494	
11	0	0	0	0	511	495	
12	0	0	0	0	511	500	
13	0	0	0	0	508	501	
14	0	0	0	0	502	513	
15	0	0	0	0	502	525	
0	0	0	0	0	504	524	
1	0	0	0	0	506	520	
2	0	0	0	0	521	512	
3	0	0	0	0	523	509	
4	0	0	0	0	519	504	
5	0	0	0	0	515	508	
6	0	0	0	0	513	509	
7	0	0	0	0	510	507	
8	0	0	0	0	509	505	
9	0	0	0	0	510	506	
10	0	0	0	0	511	505	
11	0	0	0	0	508	504	
12	0	0	0	0	512	500	
13	0	0	0	0	518	494	
14	0	0	0	0	515	493	
15	0	0	0	0	517	498	
0	0	0	0	0	515	506	
1	0	0	0	0	519	503	
2	0	0	0	0	510	515	
3	0	0	0	0	503	527	
4	0	0	0	0	506	527	
5	0	0	0	0	507	522	
6	0	0	0	0	510	514	
7	0	0	0	0	511	511	
8	0	0	0	0	515	509	
9	0	0	0	0	519	508	
10	0	0	0	0	519	508	
11	0	0	0	0	519	501	
12	0	0	0	0	518	501	
13	0	0	0	0	524	505	
14	0	0	0	0	531	502	
15	0	0	0	0	525	502	
0	0	0	0	0	514	499	
1	0	0	0	0	510	494	
2	0	0	0	0	504	493	
3	0	0	0	0	500	501	
4	0	0	0	0	495	507	
5	0	0	0	0	494	506	
6	0	0	0	0	494	517	
7	0	0	0	0	495	525	
8	0	0	0	0	500	523	
9	0	0	0	0	506	523	
10	0	0	0	0	512	514	
11	0	0	0	0	517	511	
12	0	0	0	0	519	507	
13	0	0	0	0	524	505	
14	0	0	0	0	524	503	
15	0	0	0	0	521	502	
0	0	0	0	0	519	501	
1	0	0	0	0	515	503	
2	0	0	0	0	515	503	
3	0	0	0	0	515	505	
4	0	0	0	0	524	503	
5	0	0	0	0	527	496	
6	0	0	0	0	521	495	
7	0	0	0	0	512	499	
8	0	0	0	0	507	505	
9	0	0	0	0	503	504	
10	0	0	0	0	496	512	
11	0	0	0	0	496	525	
12	0	0	0	0	503	523	
13	0	0	0	0	508	520	
14	0	0	0	0	512	515	
15	0	0	0	0	512	509	
0	0	0	0	0	515	508	
1	0	0	0	0	524	506	
2	0	0	0	0	522	508	
3	0	0	0	0	513	503	
4	0	0	0	0	508	502	
5	0	0	0	0	505	503	
6	0	0	0	0	513	502	
7	0	0	0	0	507	503	
8	0	0	0	0	504	500	
9	0	0	0	0	508	495	
10	0	0	0	0	500	498	
11	0	0	0	0	499	500	
12	0	0	0	0	497	506	
13	0	0	0	0	503	504	
14	0	0	0	0	509	514	
15	0	0	0	0	509	524	
0	0	0	0	0	513	524	
1	0	0	0	0	515	521	
2	0	0	0	0	516	516	
3	0	0	0	0	516	514	
4	0	0	0	0	514	507	
5	0	0	0	0	519	507	
6	0	0	0	0	527	504	
7	0	0	0	0	528	502	
8	0	0	0	0	520	504	
9	0	0	0	0	518	506	
10	0	0	0	0	513	505	
11	0	0	0	0	508	502	
12	0	0	0	0	507	501	
13	0	0	0	0	512	494	
14	0	0	0	0	509	494	
15	0	0	0	0	506	499	
0	0	0	0	0	509	505	
1	0	0	0	0	511	504	
2	0	0	0	0	507	516	
3	0	0	0	0	506	526	
4	0	0	0	0	511	523	
5	0	0	0	0	509	521	
6	0	0	0	0	511	516	
7	0	0	0	0	513	511	
8	0	0	0	0	513	508	
9	0	0	0	0	517	508	
10	0	0	0	0	517	504	
11	0	0	0	0	524	501	
12	0	0	0	0	527	501	
13	0	0	0	0	523	505	
14	0	0	0	0	522	506	
15	0	0	0	0	514	507	
0	0	0	0	0	508	500	
1	0	0	0	0	518	495	
2	0	0	0	0	523	492	
3	0	0	0	0	516	499	
4	0	0	0	0	508	505	
5	0	0	0	0	512	504	
6	0	0	0	0	499	515	
7	0	0	0	0	487	526	
8	0	0	0	0	481	523	
9	0	0	0	0	483	520	
10	0	0	0	0	492	511	
11	0	0	0	0	504	510	
12	0	0	0	0	512	506	
13	0	0	0	0	520	509	
14	0	0	0	0	527	510	
15	0	0	0	0	529	505	
0	0	0	0	0	526	502	
1	0	0	0	0	519	501	
2	0	0	0	0	517	505	
3	0	0	0	0	512	504	
4	0	0	0	0	510	500	
5	0	0	0	0	510	495	
6	0	0	0	0	518	495	
7	0	0	0	0	524	500	
8	0	0	0	0	516	505	
9	0	0	0	0	509	505	
10	0	0	0	0	499	517	
11	0	0	0	0	492	526	
12	0	0	0	0	502	525	
13	0	0	0	0	508	519	
14	0	0	0	0	532	514	
15	0	0	0	0	543	511	
0	0	0	0	0	541	507	
1	0	0	0	0	524	506	
2	0	0	0	0	508	505	
3	0	0	0	0	499	502	
4	0	0	0	0	495	504	
5	0	0	0	0	488	503	
6	0	0	0	0	482	505	
7	0	0	0	0	487	504	
8	0	0	0	0	493	501	
9	0	0	0	0	498	493	
10	0	0	0	0	509	493	
11	0	0	0	0	518	496	
12	0	0	0	0	522	500	
13	0	0	0	0	522	501	
14	0	0	0	0	513	511	
15	0	0	0	0	508	525	
0	0	0	0	0	509	527	
1	0	0	0	0	510	523	
2	0	0	0	0	514	516	
3	0	0	0	0	519	516	
4	0	0	0	0	523	513	
5	0	0	0	0	523	512	
6	0	0	0	0	522	510	
7	0	0	0	0	519	504	
8	0	0	0	0	511	502	
9	0	0	0	0	512	504	
10	0	0	0	0	514	505	
11	0	0	0	0	517	503	
12	0	0	0	0	521	499	
13	0	0	0	0	533	493	
14	0	0	0	0	534	495	
15	0	0	0	0	523	496	
0	0	0	0	0	514	504	
1	0	0	0	0	506	504	
2	0	0	0	0	496	516	
3	0	0	0	0	488	527	
4	0	0	0	0	486	523	
5	0	0	0	0	493	521	
6	0	0	0	0	498	517	
7	0	0	0	0	507	509	
8	0	0	0	0	518	505	
9	0	0	0	0	528	504	
10	0	0	0	0	527	504	
11	0	0	0	0	522	500	
12	0	0	0	0	517	500	
13	0	0	0	0	510	506	
14	0	0	0	0	505	507	
15	0	0	0	0	503	504	
0	0	0	0	0	505	501	
1	0	0	0	0	513	494	
2	0	0	0	0	516	496	
3	0	0	0	0	519	499	
4	0	0	0	0	517	507	
5	0	0	0	0	515	504	
6	0	0	0	0	504	517	
7	0	0	0	0	501	526	
8	0	0	0	0	506	523	
9	0	0	0	0	510	519	
10	0	0	0	0	517	513	
11	0	0	0	0	523	510	
12	0	0	0	0	521	508	
13	0	0	0	0	518	507	
14	0	0	0	0	513	506	
15	0	0	0	0	509	504	
0	0	0	0	0	505	503	
1	0	0	0	0	507	505	
2	0	0	0	0	510	505	
3	0	0	0	0	519	504	
4	0	0	0	0	517	501	
5	0	0	0	0	516	495	
6	0	0	0	0	509	492	
7	0	0	0	0	508	498	
8	0	0	0	0	500	504	
9	0	0	0	0	504	505	
10	0	0	0	0	500	513	
11	0	0	0	0	496	525	
12	0	0	0	0	505	523	
13	0	0	0	0	510	521	
14	0	0	0	0	513	518	
15	0	0	0	0	520	513	
0	0	0	0	0	521	510	
1	0	0	0	0	528	508	
2	0	0	0	0	526	504	
3	0	0	0	0	525	500	
4	0	0	0	0	519	503	
5	0	0	0	0	512	504	
6	0	0	0	0	507	505	
7	0	0	0	0	504	504	
8	0	0	0	0	504	501	
9	0	0	0	0	503	497	
10	0	0	0	0	501	494	
11	0	0	0	0	500	501	
12	0	0	0	0	499	505	
13	0	0	0	0	503	504	
14	0	0	0	0	500	515	
15	0	0	0	0	503	521	
0	0	0	0	0	509	521	
1	0	0	0	0	514	518	
2	0	0	0	0	519	512	
3	0	0	0	0	521	508	
4	0	0	0	0	521	507	
5	0	0	0	0	522	505	
6	0	0	0	0	521	504	
7	0	0	0	0	523	500	
8	0	0	0	0	523	502	
9	0	0	0	0	518	510	
10	0	0	0	0	518	511	
11	0	0	0	0	515	510	
12	0	0	0	0	512	504	
13	0	0	0	0	513	496	
14	0	0	0	0	513	493	
15	0	0	0	0	511	498	
0	0	0	0	0	509	503	
1	0	0	0	0	509	505	
2	0	0	0	0	503	515	
3	0	0	0	0	499	524	
4	0	0	0	0	503	522	
5	0	0	0	0	508	521	
6	0	0	0	0	508	516	
7	0	0	0	0	513	510	
8	0	0	0	0	515	509	
9	0	0	0	0	518	505	
10	0	0	0	0	519	504	
11	0	0	0	0	517	503	
12	0	0	0	0	516	504	
13	0	0	0	0	513	504	
14	0	0	0	0	511	512	
15	0	0	0	0	514	510	
0	0	0	0	0	513	505	
1	0	0	0	0	515	493	
2	0	0	0	0	511	497	
3	0	0	0	0	509	499	
4	0	0	0	0	510	504	
5	0	0	0	0	510	497	
6	0	0	0	0	500	505	
7	0	0	0	0	499	518	
8	0	0	0	0	504	520	
9	0	0	0	0	508	520	
10	0	0	0	0	513	511	
11	0	0	0	0	516	505	
12	0	0	0	0	517	507	
13	0	0	0	0	518	511	
14	0	0	0	0	518	513	
15	0	0	0	0	515	508	
0	0	0	0	0	514	503	
1	0	0	0	0	513	503	
2	0	0	0	0	512	503	
3	0	0	0	0	511	500	
4	0	0	0	0	511	499	
5	0	0	0	0	518	495	
6	0	0	0	0	511	496	
7	0	0	0	0	510	501	
8	0	0	0	0	509	507	
9	0	0	0	0	511	507	
10	0	0	0	0	500	514	
11	0	0	0	0	500	523	
12	0	0	0	0	505	521	
13	0	0	0	0	509	518	
14	0	0	0	0	512	513	
15	0	0	0	0	516	507	
0	0	0	0	0	516	503	
1	0	0	0	0	521	507	
2	0	0	0	0	519	508	
3	0	0	0	0	519	504	
4	0	0	0	0	518	508	
5	0	0	0	0	518	513	
6	0	0	0	0	512	513	
7	0	0	0	0	507	508	
8	0	0	0	0	510	504	
9	0	0	0	0	515	499	
10	0	0	0	0	512	496	
11	0	0	0	0	510	498	
12	0	0	0	0	512	502	
13	0	0	0	0	511	504	
14	0	0	0	0	501	516	
15	0	0	0	0	498	526	
0	0	0	0	0	503	523	
1	0	0	0	0	507	519	
2	0	0	0	0	510	513	
3	0	0	0	0	515	507	
4	0	0	0	0	517	505	
5	0	0	0	0	519	506	
6	0	0	0	0	515	502	
7	0	0	0	0	513	500	
8	0	0	0	0	516	503	
9	0	0	0	0	514	504	
10	0	0	0	0	515	504	
11	0	0	0	0	516	506	
12	0	0	0	0	517	502	
13	0	0	0	0	517	495	
14	0	0	0	0	517	497	
15	0	0	0	0	512	504	
0	0	0	0	0	511	508	
1	0	0	0	0	511	508	
2	0	0	0	0	503	518	
3	0	0	0	0	497	527	
4	0	0	0	0	501	523	
5	0	0	0	0	507	515	
6	0	0	0	0	512	512	
7	0	0	0	0	513	508	
8	0	0	0	0	516	506	
9	0	0	0	0	516	505	
10	0	0	0	0	516	502	
11	0	0	0	0	514	500	
12	0	0	0	0	515	501	
13	0	0	0	0	515	504	
14	0	0	0	0	513	499	
15	0	0	0	0	513	502	
0	0	0	0	0	516	500	
1	0	0	0	0	523	496	
2	0	0	0	0	525	496	
3	0	0	0	0	519	502	
4	0	0	0	0	514	507	
5	0	0	0	0	511	508	
6	0	0	0	0	497	521	
7	0	0	0	0	490	530	
8	0	0	0	0	496	524	
9	0	0	0	0	499	517	
10	0	0	0	0	503	513	
11	0	0	0	0	514	510	
12	0	0	0	0	515	509	
13	0	0	0	0	515	508	
14	0	0	0	0	523	508	
15	0	0	0	0	520	500	
0	0	0	0	0	517	502	
1	0	0	0	0	515	502	
2	0	0	0	0	516	501	
3	0	0	0	0	514	500	
4	0	0	0	0	508	503	
5	0	0	0	0	507	495	
6	0	0	0	0	506	496	
7	0	0	0	0	505	499	
8	0	0	0	0	499	504	
9	0	0	0	0	507	505	
10	0	0	0	0	506	515	
11	0	0	0	0	509	526	
12	0	0	0	0	511	528	
13	0	0	0	0	514	528	
14	0	0	0	0	513	518	
15	0	0	0	0	512	510	
0	0	0	0	0	512	511	
1	0	0	0	0	511	509	
2	0	0	0	0	506	506	
3	0	0	0	0	510	502	
4	0	0	0	0	511	496	
5	0	0	0	0	507	499	
6	0	0	0	0	505	501	
7	0	0	0	0	508	499	
8	0	0	0	0	516	500	
9	0	0	0	0	522	492	
10	0	0	0	0	517	494	
11	0	0	0	0	517	502	
12	0	0	0	0	515	508	
13	0	0	0	0	516	508	
14	0	0	0	0	511	517	
15	0	0	0	0	516	528	
0	0	0	0	0	522	527	
1	0	0	0	0	521	518	
2	0	0	0	0	521	514	
3	0	0	0	0	517	511	
4	0	0	0	0	510	508	
5	0	0	0	0	510	509	
6	0	0	0	0	509	511	
7	0	0	0	0	508	507	
8	0	0	0	0	510	504	
9	0	0	0	0	505	506	
10	0	0	0	0	508	503	
11	0	0	0	0	507	501	
12	0	0	0	0	510	497	
13	0	0	0	0	516	492	
14	0	0	0	0	512	490	
15	0	0	0	0	510	497	
0	0	0	0	0	508	507	
1	0	0	0	0	508	506	
2	0	0	0	0	508	516	
3	0	0	0	0	510	527	
4	0	0	0	0	521	530	
5	0	0	0	0	521	526	
6	0	0	0	0	518	516	
7	0	0	0	0	515	511	
8	0	0	0	0	512	507	
9	0	0	0	0	511	506	
10	0	0	0	0	512	500	
11	0	0	0	0	510	500	
12	0	0	0	0	513	503	
13	0	0	0	0	515	505	
14	0	0	0	0	511	505	
15	0	0	0	0	508	504	
0	0	0	0	0	511	502	
1	0	0	0	0	514	492	
2	0	0	0	0	511	491	
3	0	0	0	0	508	496	
4	0	0	0	0	507	500	
5	0	0	0	0	509	500	
6	0	0	0	0	500	513	
7	0	0	0	0	501	519	
8	0	0	0	0	507	515	
9	0	0	0	0	509	512	
10	0	0	0	0	513	492	
11	0	0	0	0	516	492	
12	0	0	0	0	519	510	
13	0	0	0	0	522	540	
14	0	0	0	0	520	533	
15	0	0	0	0	518	514	
0	0	0	0	0	518	498	
1	0	0	0	0	515	526	
2	0	0	0	0	511	557	
3	0	0	0	0	512	518	
4	0	0	0	0	516	498	
5	0	0	0	0	518	482	
6	0	0	0	0	511	465	
7	0	0	0	0	507	474	
8	0	0	0	0	506	477	
9	0	0	0	0	505	463	
10	0	0	0	0	496	461	
11	0	0	0	0	496	505	
12	0	0	0	0	502	533	
13	0	0	0	0	508	593	
14	0	0	0	0	512	632	
15	0	0	0	0	517	572	
0	0	0	0	0	522	491	
1	0	0	0	0	525	471	
2	0	0	0	0	523	483	
3	0	0	0	0	517	496	
4	0	0	0	0	516	498	
5	0	0	0	0	518	492	
6	0	0	0	0	513	504	
7	0	0	0	0	513	504	
8	0	0	0	0	514	495	
9	0	0	0	0	516	482	
10	0	0	0	0	509	487	
11	0	0	0	0	509	499	
12	0	0	0	0	508	513	
13	0	0	0	0	509	513	
14	0	0	0	0	503	517	
15	0	0	0	0	497	514	
0	0	0	0	0	498	517	
1	0	0	0	0	503	503	
2	0	0	0	0	506	481	
3	0	0	0	0	511	497	
4	0	0	0	0	513	491	
5	0	0	0	0	520	479	
6	0	0	0	0	522	505	
7	0	0	0	0	520	484	
8	0	0	0	0	519	473	
9	0	0	0	0	516	537	
10	0	0	0	0	510	543	
11	0	0	0	0	510	539	
12	0	0	0	0	513	567	
13	0	0	0	0	515	546	
14	0	0	0	0	516	489	
15	0	0	0	0	509	420	
0	0	0	0	0	506	401	
1	0	0	0	0	506	438	
2	0	0	0	0	497	522	
3	0	0	0	0	498	580	
4	0	0	0	0	504	527	
5	0	0	0	0	516	478	
6	0	0	0	0	520	500	
7	0	0	0	0	524	475	
8	0	0	0	0	518	502	
9	0	0	0	0	510	608	
10	0	0	0	0	515	563	
11	0	0	0	0	523	607	
12	0	0	0	0	523	559	
13	0	0	0	0	526	497	
14	0	0	0	0	516	573	
15	0	0	0	0	511	559	
0	0	0	0	0	510	485	
1	0	0	0	0	515	468	
2	0	0	0	0	510	468	
3	0	0	0	0	509	477	
4	0	0	0	0	505	497	
5	0	0	0	0	508	496	
6	0	0	0	0	497	503	
7	0	0	0	0	495	511	
8	0	0	0	0	501	582	
9	0	0	0	0	504	491	
10	0	0	0	0	505	418	
11	0	0	0	0	514	447	
12	0	0	0	0	518	465	
13	0	0	0	0	522	392	
14	0	0	0	0	521	490	
15	0	0	0	0	518	557	
0	0	0	0	0	515	679	
1	0	0	0	0	517	620	
2	0	0	0	0	515	490	
3	0	0	0	0	515	444	
4	0	0	0	0	514	465	
5	0	0	0	0	515	487	
6	0	0	0	0	507	529	
7	0	0	0	0	507	527	
8	0	0	0	0	512	512	
9	0	0	0	0	511	507	
10	0	0	0	0	505	491	
11	0	0	0	0	502	478	
12	0	0	0	0	502	535	
13	0	0	0	0	507	550	
14	0	0	0	0	509	507	
15	0	0	0	0	514	496	
0	0	0	0	0	514	479	
1	0	0	0	0	514	449	
2	0	0	0	0	517	497	
3	0	0	0	0	516	517	
4	0	0	0	0	513	524	
5	0	0	0	0	515	503	
6	0	0	0	0	512	517	
7	0	0	0	0	514	464	
8	0	0	0	0	515	481	
9	0	0	0	0	519	594	
10	0	0	0	0	511	589	
11	0	0	0	0	512	517	
12	0	0	0	0	513	508	
13	0	0	0	0	511	480	
14	0	0	0	0	501	483	
15	0	0	0	0	498	479	
0	0	0	0	0	508	504	
1	0	0	0	0	508	479	
2	0	0	0	0	512	454	
3	0	0	0	0	513	425	
4	0	0	0	0	516	468	
5	0	0	0	0	515	529	
6	0	0	0	0	517	515	
7	0	0	0	0	516	675	
8	0	0	0	0	517	625	
9	0	0	0	0	516	558	
10	0	0	0	0	517	515	
11	0	0	0	0	512	480	
12	0	0	0	0	509	361	
13	0	0	0	0	509	353	
14	0	0	0	0	507	513	
15	0	0	0	0	513	534	
0	0	0	0	0	518	538	
1	0	0	0	0	515	572	
2	0	0	0	0	504	583	
3	0	0	0	0	503	520	
4	0	0	0	0	508	472	
5	0	0	0	0	509	483	
6	0	0	0	0	510	482	
7	0	0	0	0	515	481	
8	0	0	0	0	516	484	
9	0	0	0	0	518	575	
10	0	0	0	0	518	575	
11	0	0	0	0	517	517	
12	0	0	0	0	516	483	
13	0	0	0	0	514	487	
14	0	0	0	0	512	481	
15	0	0	0	0	510	494	
0	0	0	0	0	510	527	
1	0	0	0	0	515	538	
2	0	0	0	0	514	488	
3	0	0	0	0	508	483	
4	0	0	0	0	509	505	
5	0	0	0	0	507	505	
6	0	0	0	0	500	492	
7	0	0	0	0	497	519	
8	0	0	0	0	507	531	
9	0	0	0	0	513	537	
10	0	0	0	0	514	527	
11	0	0	0	0	514	514	
12	0	0	0	0	514	510	
13	0	0	0	0	515	512	
14	0	0	0	0	516	504	
15	0	0	0	0	515	492	
0	0	0	0	0	512	499	
1	0	0	0	0	515	500	
2	0	0	0	0	513	492	
3	0	0	0	0	514	498	
4	0	0	0	0	514	504	
5	0	0	0	0	516	492	
6	0	0	0	0	512	501	
7	0	0	0	0	510	509	
8	0	0	0	0	509	515	
9	0	0	0	0	509	511	
10	0	0	0	0	500	523	
11	0	0	0	0	501	525	
12	0	0	0	0	509	509	
13	0	0	0	0	509	523	
14	0	0	0	0	510	504	
15	0	0	0	0	513	468	
0	0	0	0	0	511	499	
1	0	0	0	0	516	487	
2	0	0	0	0	516	495	
3	0	0	0	0	521	527	
4	0	0	0	0	522	503	
5	0	0	0	0	514	533	
6	0	0	0	0	512	561	
7	0	0	0	0	513	517	
8	0	0	0	0	516	466	
9	0	0	0	0	517	468	
10	0	0	0	0	513	462	
11	0	0	0	0	509	501	
12	0	0	0	0	510	526	
13	0	0	0	0	507	533	
14	0	0	0	0	496	559	
15	0	0	0	0	498	488	
0	0	0	0	0	500	451	
1	0	0	0	0	507	476	
2	0	0	0	0	511	527	
3	0	0	0	0	513	598	
4	0	0	0	0	521	490	
5	0	0	0	0	526	400	
6	0	0	0	0	525	550	
7	0	0	0	0	519	581	
8	0	0	0	0	518	556	
9	0	0	0	0	518	494	
10	0	0	0	0	514	499	
11	0	0	0	0	509	486	
12	0	0	0	0	511	462	
13	0	0	0	0	512	472	
14	0	0	0	0	508	492	
15	0	0	0	0	508	480	
0	0	0	0	0	505	480	
1	0	0	0	0	505	529	
2	0	0	0	0	499	532	
3	0	0	0	0	499	500	
4	0	0	0	0	508	514	
5	0	0	0	0	511	552	
6	0	0	0	0	514	585	
7	0	0	0	0	518	537	
8	0	0	0	0	520	484	
9	0	0	0	0	520	527	
10	0	0	0	0	519	503	
11	0	0	0	0	514	503	
12	0	0	0	0	511	549	
13	0	0	0	0	515	501	
14	0	0	0	0	514	452	
15	0	0	0	0	512	438	
0	0	0	0	0	512	523	
1	0	0	0	0	514	557	
2	0	0	0	0	510	521	
3	0	0	0	0	508	496	
4	0	0	0	0	511	469	
5	0	0	0	0	512	496	
6	0	0	0	0	504	521	
7	0	0	0	0	501	527	
8	0	0	0	0	508	521	
9	0	0	0	0	509	523	
10	0	0	0	0	513	509	
11	0	0	0	0	513	512	
12	0	0	0	0	515	508	
13	0	0	0	0	517	512	
14	0	0	0	0	517	520	
15	0	0	0	0	514	505	
0	0	0	0	0	511	502	
1	0	0	0	0	513	506	
2	0	0	0	0	511	440	
3	0	0	0	0	510	506	
4	0	0	0	0	513	523	
5	0	0	0	0	516	499	
6	0	0	0	0	511	492	
7	0	0	0	0	508	493	
8	0	0	0	0	508	434	
9	0	0	0	0	511	546	
10	0	0	0	0	503	580	
11	0	0	0	0	504	540	
12	0	0	0	0	508	481	
13	0	0	0	0	510	494	
14	0	0	0	0	515	496	
15	0	0	0	0	517	519	
0	0	0	0	0	515	495	
1	0	0	0	0	517	489	
2	0	0	0	0	519	497	
3	0	0	0	0	521	476	
4	0	0	0	0	517	518	
5	0	0	0	0	516	503	
6	0	0	0	0	513	415	
7	0	0	0	0	514	444	
8	0	0	0	0	511	649	
9	0	0	0	0	509	652	
10	0	0	0	0	506	541	
11	0	0	0	0	508	495	
12	0	0	0	0	510	524	
13	0	0	0	0	511	508	
14	0	0	0	0	503	491	
15	0	0	0	0	504	498	
0	0	0	0	0	508	505	
1	0	0	0	0	510	508	
2	0	0	0	0	512	505	
3	0	0	0	0	514	504	
4	0	0	0	0	515	510	
5	0	0	0	0	517	513	
6	0	0	0	0	514	500	
7	0	0	0	0	513	456	
8	0	0	0	0	512	408	
9	0	0	0	0	515	387	
10	0	0	0	0	512	454	
11	0	0	0	0	510	504	
12	0	0	0	0	511	734	
13	0	0	0	0	513	676	
14	0	0	0	0	511	543	
15	0	0	0	0	515	440	
0	0	0	0	0	515	450	
1	0	0	0	0	510	472	
2	0	0	0	0	502	512	
3	0	0	0	0	502	519	
4	0	0	0	0	506	521	
5	0	0	0	0	511	517	
6	0	0	0	0	512	509	
7	0	0	0	0	515	504	
8	0	0	0	0	517	502	
9	0	0	0	0	518	507	
10	0	0	0	0	516	506	
11	0	0	0	0	515	499	
12	0	0	0	0	515	500	
13	0	0	0	0	513	505	
14	0	0	0	0	510	497	
15	0	0	0	0	510	487	
0	0	0	0	0	512	476	
1	0	0	0	0	513	481	
2	0	0	0	0	512	481	
3	0	0	0	0	519	566	
4	0	0	0	0	511	556	
5	0	0	0	0	508	484	
6	0	0	0	0	501	464	
7	0	0	0	0	501	517	
8	0	0	0	0	507	528	
9	0	0	0	0	514	504	
10	0	0	0	0	519	517	
11	0	0	0	0	514	526	
12	0	0	0	0	515	483	
13	0	0	0	0	516	551	
14	0	0	0	0	518	566	
15	0	0	0	0	514	524	
0	0	0	0	0	512	504	
1	0	0	0	0	515	457	
2	0	0	0	0	512	470	
3	0	0	0	0	509	463	
4	0	0	0	0	508	553	
5	0	0	0	0	515	518	
6	0	0	0	0	515	487	
7	0	0	0	0	509	440	
8	0	0	0	0	506	451	
9	0	0	0	0	504	549	
10	0	0	0	0	501	552	
11	0	0	0	0	501	451	
12	0	0	0	0	508	436	
13	0	0	0	0	513	494	
14	0	0	0	0	515	556	
15	0	0	0	0	517	682	
0	0	0	0	0	516	632	
1	0	0	0	0	523	473	
2	0	0	0	0	521	467	
3	0	0	0	0	520	492	
4	0	0	0	0	517	501	
5	0	0	0	0	514	508	
6	0	0	0	0	512	500	
7	0	0	0	0	508	480	
8	0	0	0	0	508	481	
9	0	0	0	0	512	457	
10	0	0	0	0	510	462	
11	0	0	0	0	511	523	
12	0	0	0	0	511	580	
13	0	0	0	0	511	502	
14	0	0	0	0	502	500	
15	0	0	0	0	500	571	
0	0	0	0	0	508	518	
1	0	0	0	0	510	512	
2	0	0	0	0	513	507	
3	0	0	0	0	516	492	
4	0	0	0	0	515	483	
5	0	0	0	0	517	494	
6	0	0	0	0	513	497	
7	0	0	0	0	511	552	
8	0	0	0	0	516	547	
9	0	0	0	0	519	486	
10	0	0	0	0	520	492	
11	0	0	0	0	513	495	
12	0	0	0	0	510	428	
13	0	0	0	0	511	498	
14	0	0	0	0	510	558	
15	0	0	0	0	511	484	
0	0	0	0	0	509	435	
1	0	0	0	0	507	491	
2	0	0	0	0	502	525	
3	0	0	0	0	502	541	
4	0	0	0	0	508	531	
5	0	0	0	0	510	563	
6	0	0	0	0	512	523	
7	0	0	0	0	515	506	
8	0	0	0	0	517	499	
9	0	0	0	0	517	504	
10	0	0	0	0	518	504	
11	0	0	0	0	518	500	
12	0	0	0	0	519	498	
13	0	0	0	0	515	504	
14	0	0	0	0	511	510	
15	0	0	0	0	511	514	
0	0	0	0	0	511	497	
1	0	0	0	0	515	486	
2	0	0	0	0	509	491	
3	0	0	0	0	510	487	
4	0	0	0	0	512	481	
5	0	0	0	0	513	580	
6	0	0	0	0	505	557	
7	0	0	0	0	501	517	
8	0	0	0	0	507	458	
9	0	0	0	0	511	478	
10	0	0	0	0	514	497	
11	0	0	0	0	514	530	
12	0	0	0	0	515	538	
13	0	0	0	0	517	534	
14	0	0	0	0	518	511	
15	0	0	0	0	518	505	
0	0	0	0	0	516	504	
1	0	0	0	0	514	501	
2	0	0	0	0	512	487	
3	0	0	0	0	509	515	
4	0	0	0	0	508	506	
5	0	0	0	0	514	496	
6	0	0	0	0	512	504	
7	0	0	0	0	510	509	
8	0	0	0	0	510	506	
9	0	0	0	0	507	509	
10	0	0	0	0	501	515	
11	0	0	0	0	498	514	
12	0	0	0	0	502	525	
13	0	0	0	0	508	513	
14	0	0	0	0	513	500	
15	0	0	0	0	518	406	
0	0	0	0	0	519	480	
1	0	0	0	0	523	565	
2	0	0	0	0	520	579	
3	0	0	0	0	515	531	
4	0	0	0	0	511	491	
5	0	0	0	0	514	491	
6	0	0	0	0	512	470	
7	0	0	0	0	512	467	
8	0	0	0	0	516	491	
9	0	0	0	0	521	527	
10	0	0	0	0	515	518	
11	0	0	0	0	513	511	
12	0	0	0	0	511	491	
13	0	0	0	0	508	505	
14	0	0	0	0	498	563	
15	0	0	0	0	499	523	
0	0	0	0	0	506	510	
1	0	0	0	0	512	561	
2	0	0	0	0	514	630	
3	0	0	0	0	515	602	
4	0	0	0	0	518	415	
5	0	0	0	0	511	376	
6	0	0	0	0	509	401	
7	0	0	0	0	510	442	
8	0	0	0	0	516	461	
9	0	0	0	0	517	564	
10	0	0	0	0	517	587	
11	0	0	0	0	515	552	
12	0	0	0	0	515	545	
13	0	0	0	0	519	485	
14	0	0	0	0	512	479	
15	0	0	0	0	508	513	
0	0	0	0	0	502	455	
1	0	0	0	0	504	459	
2	0	0	0	0	500	501	
3	0	0	0	0	503	531	
4	0	0	0	0	510	535	
5	0	0	0	0	513	608	
6	0	0	0	0	517	540	
7	0	0	0	0	515	484	
8	0	0	0	0	512	446	
9	0	0	0	0	518	475	
10	0	0	0	0	520	487	
11	0	0	0	0	517	457	
12	0	0	0	0	516	542	
13	0	0	0	0	514	581	
14	0	0	0	0	514	509	
15	0	0	0	0	511	497	
0	0	0	0	0	513	482	
1	0	0	0	0	513	493	
2	0	0	0	0	509	472	
3	0	0	0	0	507	452	
4	0	0	0	0	511	569	
5	0	0	0	0	507	529	
6	0	0	0	0	502	513	
7	0	0	0	0	501	464	
8	0	0	0	0	504	530	
9	0	0	0	0	512	545	
10	0	0	0	0	514	529	
11	0	0	0	0	517	500	
12	0	0	0	0	520	490	
13	0	0	0	0	521	522	
14	0	0	0	0	520	518	
15	0	0	0	0	514	542	
0	0	0	0	0	512	536	
1	0	0	0	0	513	515	
2	0	0	0	0	512	499	
3	0	0	0	0	513	513	
4	0	0	0	0	516	499	
5	0	0	0	0	515	443	
6	0	0	0	0	512	396	
7	0	0	0	0	511	520	
8	0	0	0	0	508	514	
9	0	0	0	0	505	491	
10	0	0	0	0	499	599	
11	0	0	0	0	501	538	
12	0	0	0	0	508	444	
13	0	0	0	0	507	436	
14	0	0	0	0	510	475	
15	0	0	0	0	516	481	
0	0	0	0	0	514	603	
1	0	0	0	0	517	622	
2	0	0	0	0	525	576	
3	0	0	0	0	520	520	
4	0	0	0	0	515	436	
5	0	0	0	0	515	470	
6	0	0	0	0	510	568	
7	0	0	0	0	512	415	
8	0	0	0	0	514	518	
9	0	0	0	0	514	532	
10	0	0	0	0	507	380	
11	0	0	0	0	502	419	
12	0	0	0	0	504	592	
13	0	0	0	0	506	480	
14	0	0	0	0	503	573	
15	0	0	0	0	512	529	
0	0	0	0	0	513	495	
1	0	0	0	0	510	567	
2	0	0	0	0	510	575	
3	0	0	0	0	512	481	
4	0	0	0	0	514	483	
5	0	0	0	0	510	516	
6	0	0	0	0	512	598	
7	0	0	0	0	518	553	
8	0	0	0	0	516	471	
9	0	0	0	0	513	403	
10	0	0	0	0	501	449	
11	0	0	0	0	509	462	
12	0	0	0	0	519	381	
13	0	0	0	0	527	550	
14	0	0	0	0	524	620	
15	0	0	0	0	515	552	
0	0	0	0	0	512	501	
1	0	0	0	0	508	484	
2	0	0	0	0	502	476	
3	0	0	0	0	500	489	
4	0	0	0	0	504	511	
5	0	0	0	0	504	598	
6	0	0	0	0	508	566	
7	0	0	0	0	509	550	
8	0	0	0	0	511	416	
9	0	0	0	0	516	508	
10	0	0	0	0	519	507	
11	0	0	0	0	519	411	
12	0	0	0	0	516	457	
13	0	0	0	0	514	529	
14	0	0	0	0	514	539	
15	0	0	0	0	507	583	
0	0	0	0	0	508	630	
1	0	0	0	0	512	458	
2	0	0	0	0	515	438	
3	0	0	0	0	505	557	
4	0	0	0	0	504	522	
5	0	0	0	0	515	447	
6	0	0	0	0	511	383	
7	0	0	0	0	510	395	
8	0	0	0	0	514	484	
9	0	0	0	0	511	545	
10	0	0	0	0	511	660	
11	0	0	0	0	514	567	
12	0	0	0	0	521	500	
13	0	0	0	0	520	568	
14	0	0	0	0	515	531	
15	0	0	0	0	508	446	
0	0	0	0	0	506	423	
1	0	0	0	0	506	416	
2	0	0	0	0	510	568	
3	0	0	0	0	516	631	
4	0	0	0	0	518	545	
5	0	0	0	0	516	537	
6	0	0	0	0	514	472	
7	0	0	0	0	508	487	
8	0	0	0	0	507	491	
9	0	0	0	0	506	476	
10	0	0	0	0	494	507	
11	0	0	0	0	492	568	
12	0	0	0	0	519	426	
13	0	0	0	0	523	445	
14	0	0	0	0	519	450	
15	0	0	0	0	517	520	
0	0	0	0	0	514	576	
1	0	0	0	0	522	546	
2	0	0	0	0	525	475	
3	0	0	0	0	519	443	
4	0	0	0	0	513	450	
5	0	0	0	0	515	420	
6	0	0	0	0	508	555	
7	0	0	0	0	501	620	
8	0	0	0	0	508	539	
9	0	0	0	0	516	494	
10	0	0	0	0	510	555	
11	0	0	0	0	510	541	
12	0	0	0	0	510	527	
13	0	0	0	0	506	511	
14	0	0	0	0	499	498	
15	0	0	0	0	503	500	
0	0	0	0	0	510	465	
1	0	0	0	0	509	488	
2	0	0	0	0	509	553	
3	0	0	0	0	512	507	
4	0	0	0	0	520	471	
5	0	0	0	0	519	550	
6	0	0	0	0	513	590	
7	0	0	0	0	522	571	
8	0	0	0	0	520	510	
9	0	0	0	0	519	430	
10	0	0	0	0	513	491	
11	0	0	0	0	511	480	
12	0	0	0	0	510	427	
13	0	0	0	0	512	377	
14	0	0	0	0	509	371	
15	0	0	0	0	507	641	
0	0	0	0	0	515	591	
1	0	0	0	0	518	562	
2	0	0	0	0	504	551	
3	0	0	0	0	498	551	
4	0	0	0	0	504	548	
5	0	0	0	0	508	531	
6	0	0	0	0	514	480	
7	0	0	0	0	517	460	
8	0	0	0	0	519	471	
9	0	0	0	0	515	403	
10	0	0	0	0	511	502	
11	0	0	0	0	510	585	
12	0	0	0	0	509	601	
13	0	0	0	0	505	499	
14	0	0	0	0	510	526	
15	0	0	0	0	517	450	
0	0	0	0	0	515	451	
1	0	0	0	0	512	422	
2	0	0	0	0	513	419	
3	0	0	0	0	516	597	
4	0	0	0	0	518	695	
5	0	0	0	0	514	586	
6	0	0	0	0	503	516	
7	0	0	0	0	500	444	
8	0	0	0	0	505	380	
9	0	0	0	0	512	442	
10	0	0	0	0	506	506	
11	0	0	0	0	512	628	
12	0	0	0	0	525	537	
13	0	0	0	0	524	510	
14	0	0	0	0	516	493	
15	0	0	0	0	514	475	
0	0	0	0	0	512	511	
1	0	0	0	0	512	566	
2	0	0	0	0	513	531	
3	0	0	0	0	508	453	
4	0	0	0	0	509	431	
5	0	0	0	0	514	433	
6	0	0	0	0	514	481	
7	0	0	0	0	515	504	
8	0	0	0	0	509	654	
9	0	0	0	0	508	580	
10	0	0	0	0	503	477	
11	0	0	0	0	502	473	
12	0	0	0	0	505	394	
13	0	0	0	0	508	536	
14	0	0	0	0	512	560	
15	0	0	0	0	518	606	
0	0	0	0	0	523	515	
1	0	0	0	0	524	463	
2	0	0	0	0	516	500	
3	0	0	0	0	517	508	
4	0	0	0	0	516	464	
5	0	0	0	0	509	547	
6	0	0	0	0	508	480	
7	0	0	0	0	505	481	
8	0	0	0	0	506	429	
9	0	0	0	0	511	586	
10	0	0	0	0	515	566	
11	0	0	0	0	516	515	
12	0	0	0	0	511	502	
13	0	0	0	0	505	501	
14	0	0	0	0	500	531	
15	0	0	0	0	505	523	
0	0	0	0	0	505	472	
1	0	0	0	0	509	496	
2	0	0	0	0	512	476	
3	0	0	0	0	513	513	
4	0	0	0	0	519	485	
5	0	0	0	0	519	503	
6	0	0	0	0	519	544	
7	0	0	0	0	523	515	
8	0	0	0	0	520	499	
9	0	0	0	0	514	459	
10	0	0	0	0	511	501	
11	0	0	0	0	512	540	
12	0	0	0	0	517	550	
13	0	0	0	0	515	570	
14	0	0	0	0	512	478	
15	0	0	0	0	510	479	
0	0	0	0	0	511	473	
1	0	0	0	0	506	481	
2	0	0	0	0	496	504	
3	0	0	0	0	500	485	
4	0	0	0	0	506	491	
5	0	0	0	0	507	564	
6	0	0	0	0	516	523	
7	0	0	0	0	520	452	
8	0	0	0	0	517	476	
9	0	0	0	0	518	563	
10	0	0	0	0	519	582	
11	0	0	0	0	516	571	
12	0	0	0	0	511	487	
13	0	0	0	0	508	487	
14	0	0	0	0	506	567	
15	0	0	0	0	505	504	
0	0	0	0	0	509	460	
1	0	0	0	0	516	428	
2	0	0	0	0	514	521	
3	0	0	0	0	512	519	
4	0	0	0	0	521	524	
5	0	0	0	0	518	498	
6	0	0	0	0	504	514	
7	0	0	0	0	496	420	
8	0	0	0	0	504	496	
9	0	0	0	0	510	544	
10	0	0	0	0	509	583	
11	0	0	0	0	512	489	
12	0	0	0	0	515	492	
13	0	0	0	0	517	504	
14	0	0	0	0	516	499	
15	0	0	0	0	515	494	
0	0	0	0	0	518	476	
1	0	0	0	0	518	530	
2	0	0	0	0	514	519	
3	0	0	0	0	515	489	
4	0	0	0	0	512	508	
5	0	0	0	0	512	503	
6	0	0	0	0	504	484	
7	0	0	0	0	509	536	
8	0	0	0	0	514	503	
9	0	0	0	0	515	419	
10	0	0	0	0	502	644	
11	0	0	0	0	502	507	
12	0	0	0	0	510	504	
13	0	0	0	0	513	548	
14	0	0	0	0	513	519	
15	0	0	0	0	510	557	
0	0	0	0	0	511	502	
1	0	0	0	0	516	384	
2	0	0	0	0	519	474	
3	0	0	0	0	517	492	
4	0	0	0	0	512	527	
5	0	0	0	0	513	515	
6	0	0	0	0	516	498	
7	0	0	0	0	515	506	
8	0	0	0	0	513	572	
9	0	0	0	0	510	598	
10	0	0	0	0	506	568	
11	0	0	0	0	508	460	
12	0	0	0	0	513	449	
13	0	0	0	0	511	429	
14	0	0	0	0	505	504	
15	0	0	0	0	507	534	
0	0	0	0	0	507	514	
1	0	0	0	0	510	483	
2	0	0	0	0	511	523	
3	0	0	0	0	514	488	
4	0	0	0	0	511	635	
5	0	0	0	0	515	530	
6	0	0	0	0	520	515	
7	0	0	0	0	521	467	
8	0	0	0	0	519	367	
9	0	0	0	0	518	484	
10	0	0	0	0	511	507	
11	0	0	0	0	510	540	
12	0	0	0	0	512	519	
13	0	0	0	0	517	511	
14	0	0	0	0	513	510	
15	0	0	0	0	510	512	
0	0	0	0	0	510	499	
1	0	0	0	0	508	508	
2	0	0	0	0	498	527	
3	0	0	0	0	501	527	
4	0	0	0	0	507	510	
5	0	0	0	0	508	454	
6	0	0	0	0	511	470	
7	0	0	0	0	519	520	
8	0	0	0	0	518	444	
9	0	0	0	0	515	615	
10	0	0	0	0	516	486	
11	0	0	0	0	516	487	
12	0	0	0	0	519	556	
13	0	0	0	0	515	523	
14	0	0	0	0	513	552	
15	0	0	0	0	512	531	
0	0	0	0	0	513	483	
1	0	0	0	0	515	515	
2	0	0	0	0	513	491	
3	0	0	0	0	511	484	
4	0	0	0	0	508	482	
5	0	0	0	0	503	467	
6	0	0	0	0	500	477	
7	0	0	0	0	502	547	
8	0	0	0	0	509	535	
9	0	0	0	0	511	542	
10	0	0	0	0	510	588	
11	0	0	0	0	513	515	
12	0	0	0	0	512	462	
13	0	0	0	0	514	426	
14	0	0	0	0	514	515	
15	0	0	0	0	518	505	
0	0	0	0	0	520	480	
1	0	0	0	0	517	539	
2	0	0	0	0	512	509	
3	0	0	0	0	513	534	
4	0	0	0	0	517	492	
5	0	0	0	0	520	493	
6	0	0	0	0	514	477	
7	0	0	0	0	509	458	
8	0	0	0	0	511	561	
9	0	0	0	0	511	545	
10	0	0	0	0	502	542	
11	0	0	0	0	501	535	
12	0	0	0	0	502	477	
13	0	0	0	0	506	403	
14	0	0	0	0	510	440	
15	0	0	0	0	517	469	
0	0	0	0	0	514	597	
1	0	0	0	0	516	646	
2	0	0	0	0	516	571	
3	0	0	0	0	516	438	
4	0	0	0	0	519	447	
5	0	0	0	0	516	482	
6	0	0	0	0	508	479	
7	0	0	0	0	509	475	
8	0	0	0	0	516	495	
9	0	0	0	0	518	506	
10	0	0	0	0	514	491	
11	0	0	0	0	509	578	
12	0	0	0	0	510	560	
13	0	0	0	0	513	543	
14	0	0	0	0	500	510	
15	0	0	0	0	501	545	
0	0	0	0	0	501	531	
1	0	0	0	0	508	463	
2	0	0	0	0	513	458	
3	0	0	0	0	517	450	
4	0	0	0	0	516	505	
5	0	0	0	0	519	463	
6	0	0	0	0	520	490	
7	0	0	0	0	516	658	
8	0	0	0	0	515	637	
9	0	0	0	0	513	498	
10	0	0	0	0	511	456	
11	0	0	0	0	512	481	
12	0	0	0	0	512	483	
13	0	0	0	0	511	473	
14	0	0	0	0	506	480	
15	0	0	0	0	508	485	
0	0	0	0	0	511	499	
1	0	0	0	0	505	561	
2	0	0	0	0	497	549	
3	0	0	0	0	504	506	
4	0	0	0	0	511	481	
5	0	0	0	0	512	495	
6	0	0	0	0	512	442	
7	0	0	0	0	517	610	
8	0	0	0	0	517	554	
9	0	0	0	0	519	436	
10	0	0	0	0	518	435	
11	0	0	0	0	519	510	
12	0	0	0	0	521	496	
13	0	0	0	0	517	495	
14	0	0	0	0	511	499	
15	0	0	0	0	508	488	
0	0	0	0	0	512	478	
1	0	0	0	0	511	560	
2	0	0	0	0	511	522	
3	0	0	0	0	508	559	
4	0	0	0	0	507	594	
5	0	0	0	0	507	503	
6	0	0	0	0	499	422	
7	0	0	0	0	503	450	
8	0	0	0	0	510	436	
9	0	0	0	0	508	540	
10	0	0	0	0	514	627	
11	0	0	0	0	518	551	
12	0	0	0	0	520	514	
13	0	0	0	0	527	553	
14	0	0	0	0	526	559	
15	0	0	0	0	519	453	
0	0	0	0	0	519	468	
1	0	0	0	0	515	493	
2	0	0	0	0	508	495	
3	0	0	0	0	507	482	
4	0	0	0	0	508	483	
5	0	0	0	0	509	472	
6	0	0	0	0	510	470	
7	0	0	0	0	508	527	
8	0	0	0	0	510	539	
9	0	0	0	0	510	501	
10	0	0	0	0	499	572	
11	0	0	0	0	503	535	
12	0	0	0	0	507	504	
13	0	0	0	0	511	491	
14	0	0	0	0	512	487	
15	0	0	0	0	517	479	
0	0	0	0	0	515	488	
1	0	0	0	0	514	513	
2	0	0	0	0	514	511	
3	0	0	0	0	516	490	
4	0	0	0	0	517	494	
5	0	0	0	0	515	611	
6	0	0	0	0	514	622	
7	0	0	0	0	517	464	
8	0	0	0	0	516	465	
9	0	0	0	0	513	440	
10	0	0	0	0	508	460	
11	0	0	0	0	506	531	
12	0	0	0	0	509	565	
13	0	0	0	0	507	531	
14	0	0	0	0	502	501	
15	0	0	0	0	499	507	
0	0	0	0	0	504	479	
1	0	0	0	0	508	459	
2	0	0	0	0	513	598	
3	0	0	0	0	519	467	
4	0	0	0	0	516	452	
5	0	0	0	0	520	517	
6	0	0	0	0	520	480	
7	0	0	0	0	521	503	
8	0	0	0	0	515	596	
9	0	0	0	0	515	502	
10	0	0	0	0	516	483	
11	0	0	0	0	508	503	
12	0	0	0	0	508	504	
13	0	0	0	0	512	485	
14	0	0	0	0	509	455	
15	0	0	0	0	505	476	
0	0	0	0	0	510	498	
1	0	0	0	0	509	453	
2	0	0	0	0	501	539	
3	0	0	0	0	504	588	
4	0	0	0	0	511	588	
5	0	0	0	0	509	476	
6	0	0	0	0	513	527	
7	0	0	0	0	517	564	
8	0	0	0	0	519	457	
9	0	0	0	0	519	542	
10	0	0	0	0	519	535	
11	0	0	0	0	521	482	
12	0	0	0	0	514	491	
13	0	0	0	0	512	479	
14	0	0	0	0	508	467	
15	0	0	0	0	507	532	
0	0	0	0	0	511	538	
1	0	0	0	0	516	502	
2	0	0	0	0	513	472	
3	0	0	0	0	510	470	
4	0	0	0	0	509	474	
5	0	0	0	0	505	472	
6	0	0	0	0	501	514	
7	0	0	0	0	502	607	
8	0	0	0	0	510	556	
9	0	0	0	0	515	534	
10	0	0	0	0	515	514	
11	0	0	0	0	517	476	
12	0	0	0	0	517	465	
13	0	0	0	0	519	515	
14	0	0	0	0	520	569	
15	0	0	0	0	514	498	
0	0	0	0	0	511	410	
1	0	0	0	0	514	494	
2	0	0	0	0	513	505	
3	0	0	0	0	512	523	
4	0	0	0	0	515	570	
5	0	0	0	0	516	514	
6	0	0	0	0	512	451	
7	0	0	0	0	508	512	
8	0	0	0	0	508	502	
9	0	0	0	0	509	537	
10	0	0	0	0	503	637	
11	0	0	0	0	501	491	
12	0	0	0	0	504	413	
13	0	0	0	0	513	541	
14	0	0	0	0	516	459	
15	0	0	0	0	514	505	
0	0	0	0	0	512	504	
1	0	0	0	0	518	511	
2	0	0	0	0	519	478	
3	0	0	0	0	515	483	
4	0	0	0	0	514	492	
5	0	0	0	0	515	498	
6	0	0	0	0	512	550	
7	0	0	0	0	510	569	
8	0	0	0	0	514	479	
9	0	0	0	0	515	464	
10	0	0	0	0	512	458	
11	0	0	0	0	505	465	
12	0	0	0	0	508	454	
13	0	0	0	0	510	553	
14	0	0	0	0	505	582	
15	0	0	0	0	507	633	
0	0	0	0	0	514	591	
1	0	0	0	0	512	464	
2	0	0	0	0	508	493	
3	0	0	0	0	513	483	
4	0	0	0	0	516	447	
5	0	0	0	0	514	492	
6	0	0	0	0	512	482	
7	0	0	0	0	512	526	
8	0	0	0	0	515	475	
9	0	0	0	0	514	470	
10	0	0	0	0	515	572	
11	0	0	0	0	516	565	
12	0	0	0	0	521	510	
13	0	0	0	0	516	513	
14	0	0	0	0	513	497	
15	0	0	0	0	511	497	
0	0	0	0	0	510	518	
1	0	0	0	0	504	510	
2	0	0	0	0	499	502	
3	0	0	0	0	499	510	
4	0	0	0	0	508	508	
5	0	0	0	0	506	515	
6	0	0	0	0	511	517	
7	0	0	0	0	513	507	
8	0	0	0	0	515	510	
9	0	0	0	0	517	482	
10	0	0	0	0	518	496	
11	0	0	0	0	517	520	
12	0	0	0	0	516	496	
13	0	0	0	0	514	494	
14	0	0	0	0	512	491	
15	0	0	0	0	513	472	
0	0	0	0	0	512	461	
1	0	0	0	0	512	462	
2	0	0	0	0	512	521	
3	0	0	0	0	509	599	
4	0	0	0	0	509	575	
5	0	0	0	0	511	493	
6	0	0	0	0	506	469	
7	0	0	0	0	499	570	
8	0	0	0	0	504	606	
9	0	0	0	0	514	475	
10	0	0	0	0	519	503	
11	0	0	0	0	519	486	
12	0	0	0	0	515	494	
13	0	0	0	0	519	444	
14	0	0	0	0	517	470	
15	0	0	0	0	514	493	
0	0	0	0	0	511	539	
1	0	0	0	0	512	534	
2	0	0	0	0	510	559	
3	0	0	0	0	512	494	
4	0	0	0	0	511	426	
5	0	0	0	0	513	468	
6	0	0	0	0	510	415	
7	0	0	0	0	508	547	
8	0	0	0	0	510	595	
9	0	0	0	0	512	507	
10	0	0	0	0	508	502	
11	0	0	0	0	510	553	
12	0	0	0	0	508	588	
13	0	0	0	0	512	501	
14	0	0	0	0	515	489	
15	0	0	0	0	515	500	
0	0	0	0	0	513	494	
1	0	0	0	0	513	504	
2	0	0	0	0	515	499	
3	0	0	0	0	514	506	
4	0	0	0	0	512	509	
5	0	0	0	0	516	408	
6	0	0	0	0	513	517	
7	0	0	0	0	512	549	
8	0	0	0	0	515	495	
9	0	0	0	0	516	498	
10	0	0	0	0	514	512	
11	0	0	0	0	511	520	
12	0	0	0	0	509	517	
13	0	0	0	0	501	503	
14	0	0	0	0	497	489	
15	0	0	0	0	500	499	
0	0	0	0	0	508	505	
1	0	0	0	0	511	503	
2	0	0	0	0	519	569	
3	0	0	0	0	518	533	
4	0	0	0	0	520	482	
5	0	0	0	0	518	482	
6	0	0	0	0	515	496	
7	0	0	0	0	513	530	
8	0	0	0	0	512	518	
9	0	0	0	0	512	514	
10	0	0	0	0	512	494	
11	0	0	0	0	511	485	
12	0	0	0	0	514	520	
13	0	0	0	0	518	516	
14	0	0	0	0	512	496	
15	0	0	0	0	508	507	
0	0	0	0	0	508	502	
1	0	0	0	0	505	500	
2	0	0	0	0	500	518	
3	0	0	0	0	504	527	
4	0	0	0	0	508	510	
5	0	0	0	0	510	501	
6	0	0	0	0	514	485	
7	0	0	0	0	518	483	
8	0	0	0	0	519	542	
9	0	0	0	0	513	687	
10	0	0	0	0	512	444	
11	0	0	0	0	515	402	
12	0	0	0	0	516	484	
13	0	0	0	0	515	491	
14	0	0	0	0	516	531	
15	0	0	0	0	519	530	
0	0	0	0	0	517	534	
1	0	0	0	0	518	506	
2	0	0	0	0	511	495	
3	0	0	0	0	508	479	
4	0	0	0	0	511	473	
5	0	0	0	0	505	499	
6	0	0	0	0	499	541	
7	0	0	0	0	504	518	
8	0	0	0	0	510	524	
9	0	0	0	0	509	520	
10	0	0	0	0	512	496	
11	0	0	0	0	515	500	
12	0	0	0	0	515	453	
13	0	0	0	0	517	475	
14	0	0	0	0	515	508	
15	0	0	0	0	511	478	
0	0	0	0	0	517	495	
1	0	0	0	0	513	503	
2	0	0	0	0	513	531	
3	0	0	0	0	513	575	
4	0	0	0	0	519	563	
5	0	0	0	0	513	514	
6	0	0	0	0	510	492	
7	0	0	0	0	507	496	
8	0	0	0	0	511	508	
9	0	0	0	0	508	448	
10	0	0	0	0	503	414	
11	0	0	0	0	496	679	
12	0	0	0	0	504	613	
13	0	0	0	0	510	432	
14	0	0	0	0	514	468	
15	0	0	0	0	519	503	
0	0	0	0	0	524	492	
1	0	0	0	0	523	470	
2	0	0	0	0	518	492	
3	0	0	0	0	513	542	
4	0	0	0	0	514	520	
5	0	0	0	0	515	521	
6	0	0	0	0	508	515	
7	0	0	0	0	510	507	
8	0	0	0	0	515	497	
9	0	0	0	0	513	490	
10	0	0	0	0	510	483	
11	0	0	0	0	508	484	
12	0	0	0	0	510	504	
13	0	0	0	0	504	514	
14	0	0	0	0	499	515	
15	0	0	0	0	503	563	
0	0	0	0	0	510	521	
1	0	0	0	0	512	486	
2	0	0	0	0	513	504	
3	0	0	0	0	518	512	
4	0	0	0	0	513	568	
5	0	0	0	0	516	546	
6	0	0	0	0	518	409	
7	0	0	0	0	520	536	
8	0	0	0	0	517	574	
9	0	0	0	0	511	484	
10	0	0	0	0	512	440	
11	0	0	0	0	512	446	
12	0	0	0	0	514	467	
13	0	0	0	0	512	483	
14	0	0	0	0	508	513	
15	0	0	0	0	511	534	
0	0	0	0	0	512	569	
1	0	0	0	0	509	507	
2	0	0	0	0	504	515	
3	0	0	0	0	501	492	
4	0	0	0	0	507	514	
5	0	0	0	0	508	544	
6	0	0	0	0	508	521	
7	0	0	0	0	518	477	
8	0	0	0	0	519	484	
9	0	0	0	0	518	534	
10	0	0	0	0	514	522	
11	0	0	0	0	517	466	
12	0	0	0	0	518	472	
13	0	0	0	0	517	620	
14	0	0	0	0	518	562	
15	0	0	0	0	518	492	
0	0	0	0	0	515	421	
1	0	0	0	0	511	477	
2	0	0	0	0	502	512	
3	0	0	0	0	507	516	
4	0	0	0	0	512	451	
5	0	0	0	0	510	577	
6	0	0	0	0	496	591	
7	0	0	0	0	498	525	
8	0	0	0	0	505	479	
9	0	0	0	0	509	464	
10	0	0	0	0	509	507	
11	0	0	0	0	516	516	
12	0	0	0	0	519	493	
13	0	0	0	0	522	469	
14	0	0	0	0	519	468	
15	0	0	0	0	516	528	
0	0	0	0	0	516	516	
1	0	0	0	0	515	558	
2	0	0	0	0	513	500	
3	0	0	0	0	510	515	
4	0	0	0	0	512	496	
5	0	0	0	0	512	519	
6	0	0	0	0	507	521	
7	0	0	0	0	508	512	
8	0	0	0	0	515	503	
9	0	0	0	0	508	522	
10	0	0	0	0	505	508	
11	0	0	0	0	506	518	
12	0	0	0	0	505	509	
13	0	0	0	0	510	488	
14	0	0	0	0	513	500	
15	0	0	0	0	515	468	
0	0	0	0	0	519	425	
1	0	0	0	0	517	511	
2	0	0	0	0	517	566	
3	0	0	0	0	516	471	
4	0	0	0	0	513	515	
5	0	0	0	0	514	553	
6	0	0	0	0	511	551	
7	0	0	0	0	515	502	
8	0	0	0	0	518	494	
9	0	0	0	0	515	505	
10	0	0	0	0	512	489	
11	0	0	0	0	506	496	
12	0	0	0	0	508	501	
13	0	0	0	0	503	512	
14	0	0	0	0	499	524	
15	0	0	0	0	500	519	
0	0	0	0	0	505	479	
1	0	0	0	0	514	484	
2	0	0	0	0	517	452	
3	0	0	0	0	517	474	
4	0	0	0	0	518	496	
5	0	0	0	0	519	569	
6	0	0	0	0	515	556	
7	0	0	0	0	518	523	
8	0	0	0	0	517	545	
9	0	0	0	0	514	613	
10	0	0	0	0	514	512	
11	0	0	0	0	515	477	
12	0	0	0	0	514	435	
13	0	0	0	0	511	424	
14	0	0	0	0	512	483	
15	0	0	0	0	508	556	
0	0	0	0	0	507	514	
1	0	0	0	0	507	485	
2	0	0	0	0	500	510	
3	0	0	0	0	503	514	
4	0	0	0	0	507	524	
5	0	0	0	0	510	551	
6	0	0	0	0	515	522	
7	0	0	0	0	518	493	
8	0	0	0	0	519	501	
9	0	0	0	0	517	508	
10	0	0	0	0	514	505	
11	0	0	0	0	515	507	
12	0	0	0	0	518	499	
13	0	0	0	0	513	504	
14	0	0	0	0	511	508	
15	0	0	0	0	512	508	
0	0	0	0	0	517	493	
1	0	0	0	0	512	484	
2	0	0	0	0	508	444	
3	0	0	0	0	507	467	
4	0	0	0	0	513	502	
5	0	0	0	0	511	509	
6	0	0	0	0	504	558	
7	0	0	0	0	505	579	
8	0	0	0	0	503	533	
9	0	0	0	0	510	521	
10	0	0	0	0	510	559	
11	0	0	0	0	512	513	
12	0	0	0	0	517	494	
13	0	0	0	0	518	495	
14	0	0	0	0	516	494	
15	0	0	0	0	518	494	
0	0	0	0	0	516	495	
1	0	0	0	0	514	498	
2	0	0	0	0	511	500	
3	0	0	0	0	511	512	
4	0	0	0	0	512	488	
5	0	0	0	0	512	483	
6	0	0	0	0	507	483	
7	0	0	0	0	506	449	
8	0	0	0	0	508	518	
9	0	0	0	0	508	604	
10	0	0	0	0	507	502	
11	0	0	0	0	510	507	
12	0	0	0	0	509	528	
13	0	0	0	0	513	523	
14	0	0	0	0	515	508	
15	0	0	0	0	517	503	
0	0	0	0	0	516	494	
1	0	0	0	0	515	514	
2	0	0	0	0	516	507	
3	0	0	0	0	516	497	
4	0	0	0	0	514	502	
5	0	0	0	0	514	503	
6	0	0	0	0	510	514	
7	0	0	0	0	507	513	
8	0	0	0	0	512	480	
9	0	0	0	0	512	452	
10	0	0	0	0	511	456	
11	0	0	0	0	511	447	
12	0	0	0	0	512	518	
13	0	0	0	0	503	673	
14	0	0	0	0	502	594	
15	0	0	0	0	509	474	
0	0	0	0	0	512	487	
1	0	0	0	0	512	539	
2	0	0	0	0	516	544	
3	0	0	0	0	518	464	
4	0	0	0	0	514	462	
5	0	0	0	0	515	506	
6	0	0	0	0	512	510	
7	0	0	0	0	514	506	
8	0	0	0	0	514	507	
9	0	0	0	0	514	510	
10	0	0	0	0	512	508	
11	0	0	0	0	513	506	
12	0	0	0	0	512	486	
13	0	0	0	0	513	485	
14	0	0	0	0	512	494	
15	0	0	0	0	510	497	
0	0	0	0	0	510	538	
1	0	0	0	0	504	554	
2	0	0	0	0	503	490	
3	0	0	0	0	507	500	
4	0	0	0	0	512	519	
5	0	0	0	0	515	508	
6	0	0	0	0	517	513	
7	0	0	0	0	515	529	
8	0	0	0	0	515	433	
9	0	0	0	0	514	535	
10	0	0	0	0	518	539	
11	0	0	0	0	516	494	
12	0	0	0	0	514	542	
13	0	0	0	0	510	482	
14	0	0	0	0	511	499	
15	0	0	0	0	509	508	
0	0	0	0	0	512	491	
1	0	0	0	0	513	468	
2	0	0	0	0	510	460	
3	0	0	0	0	510	498	
4	0	0	0	0	516	524	
5	0	0	0	0	508	575	
6	0	0	0	0	506	552	
7	0	0	0	0	507	524	
8	0	0	0	0	513	515	
9	0	0	0	0	514	511	
10	0	0	0	0	513	509	
11	0	0	0	0	515	506	
12	0	0	0	0	512	505	
13	0	0	0	0	514	505	
14	0	0	0	0	515	499	
15	0	0	0	0	521	499	
0	0	0	0	0	521	503	
1	0	0	0	0	514	504	
2	0	0	0	0	511	504	
3	0	0	0	0	511	504	
4	0	0	0	0	513	498	
5	0	0	0	0	512	492	
6	0	0	0	0	509	496	
7	0	0	0	0	505	505	
8	0	0	0	0	505	503	
9	0	0	0	0	503	507	
10	0	0	0	0	498	519	
11	0	0	0	0	500	521	
12	0	0	0	0	507	522	
13	0	0	0	0	511	514	
14	0	0	0	0	511	511	
15	0	0	0	0	513	499	
0	0	0	0	0	514	484	
1	0	0	0	0	516	511	
2	0	0	0	0	516	500	
3	0	0	0	0	516	502	
4	0	0	0	0	515	508	
5	0	0	0	0	510	504	
6	0	0	0	0	512	495	
7	0	0	0	0	518	549	
8	0	0	0	0	519	503	
9	0	0	0	0	516	487	
10	0	0	0	0	507	500	
11	0	0	0	0	509	486	
12	0	0	0	0	514	494	
13	0	0	0	0	503	546	
14	0	0	0	0	504	540	
15	0	0	0	0	508	520	
0	0	0	0	0	508	460	
1	0	0	0	0	508	435	
2	0	0	0	0	513	485	
3	0	0	0	0	522	443	
4	0	0	0	0	521	672	
5	0	0	0	0	528	581	
6	0	0	0	0	522	567	
7	0	0	0	0	520	515	
8	0	0	0	0	518	484	
9	0	0	0	0	513	489	
10	0	0	0	0	509	494	
11	0	0	0	0	510	495	
12	0	0	0	0	514	488	
13	0	0	0	0	511	484	
14	0	0	0	0	507	494	
15	0	0	0	0	507	504	
0	0	0	0	0	510	503	
1	0	0	0	0	506	509	
2	0	0	0	0	501	520	
3	0	0	0	0	503	507	
4	0	0	0	0	509	512	
5	0	0	0	0	510	510	
6	0	0	0	0	517	507	
7	0	0	0	0	517	507	
8	0	0	0	0	518	512	
9	0	0	0	0	518	514	
10	0	0	0	0	516	509	
11	0	0	0	0	515	507	
12	0	0	0	0	520	505	
13	0	0	0	0	524	504	
14	0	0	0	0	525	504	
15	0	0	0	0	526	504	
0	0	0	0	0	530	498	
1	0	0	0	0	512	497	
2	0	0	0	0	494	498	
3	0	0	0	0	485	505	
4	0	0	0	0	478	504	
5	0	0	0	0	478	510	
6	0	0	0	0	483	518	
7	0	0	0	0	503	522	
8	0	0	0	0	518	523	
9	0	0	0	0	523	518	
10	0	0	0	0	531	507	
11	0	0	0	0	559	502	
12	0	0	0	0	557	500	
13	0	0	0	0	536	503	
14	0	0	0	0	511	500	
15	0	0	0	0	491	500	
0	0	0	0	0	476	503	
1	0	0	0	0	481	505	
2	0	0	0	0	487	504	
3	0	0	0	0	504	509	
4	0	0	0	0	521	497	
5	0	0	0	0	522	494	
6	0	0	0	0	518	499	
7	0	0	0	0	517	504	
8	0	0	0	0	515	503	
9	0	0	0	0	507	509	
10	0	0	0	0	497	521	
11	0	0	0	0	493	523	
12	0	0	0	0	502	522	
13	0	0	0	0	515	516	
14	0	0	0	0	532	511	
15	0	0	0	0	545	510	
0	0	0	0	0	537	507	
1	0	0	0	0	521	508	
2	0	0	0	0	514	507	
3	0	0	0	0	510	500	
4	0	0	0	0	500	506	
5	0	0	0	0	506	507	
6	0	0	0	0	499	504	
7	0	0	0	0	508	508	
8	0	0	0	0	523	501	
9	0	0	0	0	530	500	
10	0	0	0	0	548	503	
11	0	0	0	0	536	508	
12	0	0	0	0	516	506	
13	0	0	0	0	493	511	
14	0	0	0	0	467	520	
15	0	0	0	0	477	518	
0	0	0	0	0	501	514	
1	0	0	0	0	496	512	
2	0	0	0	0	479	509	
3	0	0	0	0	463	508	
4	0	0	0	0	463	503	
5	0	0	0	0	475	503	
6	0	0	0	0	501	500	
7	0	0	0	0	529	496	
8	0	0	0	0	543	499	
9	0	0	0	0	556	502	
10	0	0	0	0	568	504	
11	0	0	0	0	565	503	
12	0	0	0	0	549	498	
13	0	0	0	0	527	494	
14	0	0	0	0	507	495	
15	0	0	0	0	505	503	
0	0	0	0	0	501	508	
1	0	0	0	0	499	516	
2	0	0	0	0	497	529	
3	0	0	0	0	497	528	
4	0	0	0	0	552	523	
5	0	0	0	0	570	518	
6	0	0	0	0	531	508	
7	0	0	0	0	505	507	
8	0	0	0	0	495	508	
9	0	0	0	0	487	512	
10	0	0	0	0	480	511	
11	0	0	0	0	484	508	
12	0	0	0	0	497	508	
13	0	0	0	0	516	505	
14	0	0	0	0	524	506	
15	0	0	0	0	525	501	
0	0	0	0	0	519	497	
1	0	0	0	0	508	496	
2	0	0	0	0	493	499	
3	0	0	0	0	494	504	
4	0	0	0	0	512	504	
5	0	0	0	0	527	509	
6	0	0	0	0	508	521	
7	0	0	0	0	540	521	
8	0	0	0	0	593	519	
9	0	0	0	0	569	515	
10	0	0	0	0	536	512	
11	0	0	0	0	500	515	
12	0	0	0	0	473	508	
13	0	0	0	0	465	508	
14	0	0	0	0	459	503	
15	0	0	0	0	474	499	
0	0	0	0	0	498	501	
1	0	0	0	0	471	502	
2	0	0	0	0	466	503	
3	0	0	0	0	470	504	
4	0	0	0	0	487	499	
5	0	0	0	0	505	500	
6	0	0	0	0	518	500	
7	0	0	0	0	525	503	
8	0	0	0	0	538	500	
9	0	0	0	0	540	506	
10	0	0	0	0	536	515	
11	0	0	0	0	538	513	
12	0	0	0	0	531	515	
13	0	0	0	0	528	500	
14	0	0	0	0	521	497	
15	0	0	0	0	517	511	
0	0	0	0	0	517	511	
1	0	0	0	0	521	512	
2	0	0	0	0	515	508	
3	0	0	0	0	512	507	
4	0	0	0	0	512	511	
5	0	0	0	0	511	513	
6	0	0	0	0	526	509	
7	0	0	0	0	551	505	
8	0	0	0	0	565	504	
9	0	0	0	0	567	501	
10	0	0	0	0	530	502	
11	0	0	0	0	510	503	
12	0	0	0	0	509	505	
13	0	0	0	0	480	512	
14	0	0	0	0	436	525	
15	0	0	0	0	434	524	
0	0	0	0	0	451	520	
1	0	0	0	0	472	518	
2	0	0	0	0	499	513	
3	0	0	0	0	521	510	
4	0	0	0	0	537	510	
5	0	0	0	0	532	511	
6	0	0	0	0	515	505	
7	0	0	0	0	500	500	
8	0	0	0	0	496	501	
9	0	0	0	0	502	502	
10	0	0	0	0	507	498	
11	0	0	0	0	517	496	
12	0	0	0	0	530	491	
13	0	0	0	0	539	492	
14	0	0	0	0	543	495	
15	0	0	0	0	534	504	
0	0	0	0	0	523	504	
1	0	0	0	0	501	509	
2	0	0	0	0	489	519	
3	0	0	0	0	495	520	
4	0	0	0	0	502	519	
5	0	0	0	0	515	518	
6	0	0	0	0	528	516	
7	0	0	0	0	534	515	
8	0	0	0	0	540	516	
9	0	0	0	0	544	514	
10	0	0	0	0	522	508	
11	0	0	0	0	492	505	
12	0	0	0	0	476	507	
13	0	0	0	0	485	504	
14	0	0	0	0	501	500	
15	0	0	0	0	509	498	
0	0	0	0	0	511	493	
1	0	0	0	0	515	495	
2	0	0	0	0	522	500	
3	0	0	0	0	530	505	
4	0	0	0	0	525	508	
5	0	0	0	0	499	511	
6	0	0	0	0	473	522	
7	0	0	0	0	472	517	
8	0	0	0	0	491	510	
9	0	0	0	0	511	507	
10	0	0	0	0	534	507	
11	0	0	0	0	558	509	
12	0	0	0	0	587	510	
13	0	0	0	0	597	512	
14	0	0	0	0	597	506	
15	0	0	0	0	505	504	
0	0	0	0	0	427	505	
1	0	0	0	0	422	506	
2	0	0	0	0	422	507	
3	0	0	0	0	419	506	
4	0	0	0	0	465	501	
5	0	0	0	0	507	504	
6	0	0	0	0	536	504	
7	0	0	0	0	548	507	
8	0	0	0	0	556	502	
9	0	0	0	0	547	508	
10	0	0	0	0	537	518	
11	0	0	0	0	543	520	
12	0	0	0	0	534	517	
13	0	0	0	0	519	508	
14	0	0	0	0	506	509	
15	0	0	0	0	493	505	
0	0	0	0	0	492	497	
1	0	0	0	0	500	498	
2	0	0	0	0	516	493	
3	0	0	0	0	517	492	
4	0	0	0	0	514	499	
5	0	0	0	0	515	500	
6	0	0	0	0	512	502	
7	0	0	0	0	506	503	
8	0	0	0	0	509	504	
9	0	0	0	0	522	506	
10	0	0	0	0	516	511	
11	0	0	0	0	519	510	
12	0	0	0	0	509	508	
13	0	0	0	0	496	510	
14	0	0	0	0	495	521	
15	0	0	0	0	510	523	
0	0	0	0	0	564	525	
1	0	0	0	0	591	523	
2	0	0	0	0	565	522	
3	0	0	0	0	526	521	
4	0	0	0	0	497	516	
5	0	0	0	0	480	516	
6	0	0	0	0	468	510	
7	0	0	0	0	466	505	
8	0	0	0	0	451	502	
9	0	0	0	0	420	499	
10	0	0	0	0	437	497	
11	0	0	0	0	491	494	
12	0	0	0	0	534	487	
13	0	0	0	0	557	491	
14	0	0	0	0	528	498	
15	0	0	0	0	497	508	
0	0	0	0	0	479	505	
1	0	0	0	0	495	511	
2	0	0	0	0	495	523	
3	0	0	0	0	528	518	
4	0	0	0	0	567	519	
5	0	0	0	0	600	516	
6	0	0	0	0	619	519	
7	0	0	0	0	604	522	
8	0	0	0	0	569	518	
9	0	0	0	0	573	516	
10	0	0	0	0	524	508	
11	0	0	0	0	493	495	
12	0	0	0	0	494	489	
13	0	0	0	0	484	491	
14	0	0	0	0	470	498	
15	0	0	0	0	448	495	
0	0	0	0	0	446	496	
1	0	0	0	0	424	499	
2	0	0	0	0	452	500	
3	0	0	0	0	495	502	
4	0	0	0	0	510	488	
5	0	0	0	0	528	488	
6	0	0	0	0	570	501	
7	0	0	0	0	571	505	
8	0	0	0	0	420	515	
9	0	0	0	0	289	526	
10	0	0	0	0	316	523	
11	0	0	0	0	470	526	
12	0	0	0	0	618	524	
13	0	0	0	0	706	525	
14	0	0	0	0	685	520	
15	0	0	0	0	649	517	
0	0	0	0	0	605	515	
1	0	0	0	0	551	508	
2	0	0	0	0	508	508	
3	0	0	0	0	479	509	
4	0	0	0	0	480	503	
5	0	0	0	0	487	500	
6	0	0	0	0	494	502	
7	0	0	0	0	498	506	
8	0	0	0	0	490	502	
9	0	0	0	0	479	506	
10	0	0	0	0	470	509	
11	0	0	0	0	464	502	
12	0	0	0	0	473	498	
13	0	0	0	0	484	491	
14	0	0	0	0	502	487	
15	0	0	0	0	486	490	
0	0	0	0	0	498	497	
1	0	0	0	0	522	507	
2	0	0	0	0	557	505	
3	0	0	0	0	562	505	
4	0	0	0	0	557	511	
5	0	0	0	0	543	510	
6	0	0	0	0	529	507	
7	0	0	0	0	530	506	
8	0	0	0	0	534	498	
9	0	0	0	0	544	497	
10	0	0	0	0	518	502	
11	0	0	0	0	496	510	
12	0	0	0	0	475	510	
13	0	0	0	0	460	520	
14	0	0	0	0	455	532	
15	0	0	0	0	398	530	
0	0	0	0	0	390	526	
1	0	0	0	0	447	521	
2	0	0	0	0	529	521	
3	0	0	0	0	602	515	
4	0	0	0	0	633	505	
5	0	0	0	0	612	498	
6	0	0	0	0	607	497	
7	0	0	0	0	609	503	
8	0	0	0	0	667	511	
9	0	0	0	0	596	519	
10	0	0	0	0	471	519	
11	0	0	0	0	428	518	
12	0	0	0	0	440	506	
13	0	0	0	0	414	503	
14	0	0	0	0	444	502	
15	0	0	0	0	509	510	
0	0	0	0	0	548	504	
1	0	0	0	0	538	503	
2	0	0	0	0	494	504	
3	0	0	0	0	438	502	
4	0	0	0	0	407	493	
5	0	0	0	0	425	485	
6	0	0	0	0	517	484	
7	0	0	0	0	566	492	
8	0	0	0	0	564	502	
9	0	0	0	0	538	506	
10	0	0	0	0	500	505	
11	0	0	0	0	470	507	
12	0	0	0	0	468	508	
13	0	0	0	0	472	511	
14	0	0	0	0	497	513	
15	0	0	0	0	538	510	
0	0	0	0	0	510	507	
1	0	0	0	0	524	510	
2	0	0	0	0	543	509	
3	0	0	0	0	597	515	
4	0	0	0	0	616	515	
5	0	0	0	0	568	522	
6	0	0	0	0	512	536	
7	0	0	0	0	482	532	
8	0	0	0	0	460	525	
9	0	0	0	0	450	522	
10	0	0	0	0	455	515	
11	0	0	0	0	493	510	
12	0	0	0	0	514	508	
13	0	0	0	0	531	503	
14	0	0	0	0	536	500	
15	0	0	0	0	563	493	
0	0	0	0	0	566	494	
1	0	0	0	0	536	494	
2	0	0	0	0	557	491	
3	0	0	0	0	529	494	
4	0	0	0	0	485	488	
5	0	0	0	0	454	480	
6	0	0	0	0	456	484	
7	0	0	0	0	467	499	
8	0	0	0	0	494	506	
9	0	0	0	0	551	514	
10	0	0	0	0	538	524	
11	0	0	0	0	519	524	
12	0	0	0	0	507	526	
13	0	0	0	0	512	519	
14	0	0	0	0	567	515	
15	0	0	0	0	617	515	
0	0	0	0	0	519	509	
1	0	0	0	0	415	499	
2	0	0	0	0	419	500	
3	0	0	0	0	490	506	
4	0	0	0	0	551	508	
5	0	0	0	0	529	503	
6	0	0	0	0	460	498	
7	0	0	0	0	436	496	
8	0	0	0	0	453	494	
9	0	0	0	0	484	499	
10	0	0	0	0	500	504	
11	0	0	0	0	508	510	
12	0	0	0	0	523	506	
13	0	0	0	0	525	508	
14	0	0	0	0	520	518	
15	0	0	0	0	521	517	
0	0	0	0	0	521	515	
1	0	0	0	0	463	513	
2	0	0	0	0	426	513	
3	0	0	0	0	495	513	
4	0	0	0	0	579	516	
5	0	0	0	0	588	519	
6	0	0	0	0	569	518	
7	0	0	0	0	636	516	
8	0	0	0	0	658	515	
9	0	0	0	0	619	511	
10	0	0	0	0	635	506	
11	0	0	0	0	620	500	
12	0	0	0	0	547	495	
13	0	0	0	0	466	497	
14	0	0	0	0	405	495	
15	0	0	0	0	358	498	
0	0	0	0	0	347	499	
1	0	0	0	0	368	508	
2	0	0	0	0	404	515	
3	0	0	0	0	446	510	
4	0	0	0	0	480	504	
5	0	0	0	0	507	504	
6	0	0	0	0	536	504	
7	0	0	0	0	550	509	
8	0	0	0	0	561	511	
9	0	0	0	0	568	510	
10	0	0	0	0	569	512	
11	0	0	0	0	554	510	
12	0	0	0	0	544	513	
13	0	0	0	0	540	514	
14	0	0	0	0	525	509	
15	0	0	0	0	529	502	
0	0	0	0	0	515	495	
1	0	0	0	0	500	496	
2	0	0	0	0	487	496	
3	0	0	0	0	471	502	
4	0	0	0	0	467	500	
5	0	0	0	0	463	508	
6	0	0	0	0	459	523	
7	0	0	0	0	484	523	
8	0	0	0	0	504	516	
9	0	0	0	0	524	509	
10	0	0	0	0	542	508	
11	0	0	0	0	545	511	
12	0	0	0	0	547	507	
13	0	0	0	0	546	502	
14	0	0	0	0	553	499	
15	0	0	0	0	540	503	
0	0	0	0	0	531	512	
1	0	0	0	0	520	510	
2	0	0	0	0	513	507	
3	0	0	0	0	509	506	
4	0	0	0	0	508	503	
5	0	0	0	0	503	503	
6	0	0	0	0	501	503	
7	0	0	0	0	492	508	
8	0	0	0	0	503	507	
9	0	0	0	0	497	517	
10	0	0	0	0	488	525	
11	0	0	0	0	481	522	
12	0	0	0	0	485	521	
13	0	0	0	0	491	513	
14	0	0	0	0	500	511	
15	0	0	0	0	512	503	
0	0	0	0	0	526	503	
1	0	0	0	0	535	509	
2	0	0	0	0	532	503	
3	0	0	0	0	544	499	
4	0	0	0	0	534	496	
5	0	0	0	0	516	495	
6	0	0	0	0	507	492	
7	0	0	0	0	503	496	
8	0	0	0	0	503	495	
9	0	0	0	0	497	502	
10	0	0	0	0	488	511	
11	0	0	0	0	500	517	
12	0	0	0	0	520	511	
13	0	0	0	0	534	516	
14	0	0	0	0	530	521	
15	0	0	0	0	530	509	
0	0	0	0	0	522	507	
1	0	0	0	0	519	508	
2	0	0	0	0	514	516	
3	0	0	0	0	512	513	
4	0	0	0	0	510	508	
5	0	0	0	0	511	511	
6	0	0	0	0	509	511	
7	0	0	0	0	510	508	
8	0	0	0	0	515	509	
9	0	0	0	0	516	510	
10	0	0	0	0	511	509	
11	0	0	0	0	510	500	
12	0	0	0	0	517	495	
13	0	0	0	0	524	495	
14	0	0	0	0	520	495	
15	0	0	0	0	509	501	
0	0	0	0	0	504	502	
1	0	0	0	0	488	513	
2	0	0	0	0	482	524	
3	0	0	0	0	488	522	
4	0	0	0	0	510	519	
5	0	0	0	0	507	513	
6	0	0	0	0	507	505	
7	0	0	0	0	514	504	
8	0	0	0	0	514	504	
9	0	0	0	0	515	509	
10	0	0	0	0	510	510	
11	0	0	0	0	509	507	
12	0	0	0	0	512	506	
13	0	0	0	0	508	511	
14	0	0	0	0	508	508	
15	0	0	0	0	514	500	
0	0	0	0	0	532	492	
1	0	0	0	0	528	493	
2	0	0	0	0	538	496	
3	0	0	0	0	549	506	
4	0	0	0	0	551	501	
5	0	0	0	0	541	513	
6	0	0	0	0	516	527	
7	0	0	0	0	488	528	
8	0	0	0	0	472	524	
9	0	0	0	0	465	515	
10	0	0	0	0	459	511	
11	0	0	0	0	471	509	
12	0	0	0	0	479	507	
13	0	0	0	0	488	504	
14	0	0	0	0	506	498	
15	0	0	0	0	512	500	
0	0	0	0	0	525	501	
1	0	0	0	0	530	504	
2	0	0	0	0	533	503	
3	0	0	0	0	542	503	
4	0	0	0	0	539	496	
5	0	0	0	0	529	496	
6	0	0	0	0	519	499	
7	0	0	0	0	512	503	
8	0	0	0	0	507	504	
9	0	0	0	0	503	513	
10	0	0	0	0	502	521	
11	0	0	0	0	510	520	
12	0	0	0	0	512	520	
13	0	0	0	0	514	519	
14	0	0	0	0	516	515	
15	0	0	0	0	517	511	
0	0	0	0	0	520	507	
1	0	0	0	0	523	507	
2	0	0	0	0	519	504	
3	0	0	0	0	516	508	
4	0	0	0	0	513	512	
5	0	0	0	0	513	513	
6	0	0	0	0	511	510	
7	0	0	0	0	514	503	
8	0	0	0	0	530	492	
9	0	0	0	0	534	492	
10	0	0	0	0	522	490	
11	0	0	0	0	510	497	
12	0	0	0	0	498	498	
13	0	0	0	0	482	512	
14	0	0	0	0	476	525	
15	0	0	0	0	480	523	
0	0	0	0	0	486	520	
1	0	0	0	0	491	517	
2	0	0	0	0	503	513	
3	0	0	0	0	515	513	
4	0	0	0	0	519	512	
5	0	0	0	0	531	511	
6	0	0	0	0	529	507	
7	0	0	0	0	530	505	
8	0	0	0	0	526	506	
9	0	0	0	0	528	508	
10	0	0	0	0	520	505	
11	0	0	0	0	519	501	
12	0	0	0	0	527	491	
13	0	0	0	0	527	490	
14	0	0	0	0	527	489	
15	0	0	0	0	521	488	
0	0	0	0	0	512	490	
1	0	0	0	0	499	501	
2	0	0	0	0	488	516	
3	0	0	0	0	496	522	
4	0	0	0	0	511	524	
5	0	0	0	0	511	523	
6	0	0	0	0	509	516	
7	0	0	0	0	512	516	
8	0	0	0	0	509	513	
9	0	0	0	0	503	510	
10	0	0	0	0	496	506	
11	0	0	0	0	499	505	
12	0	0	0	0	505	507	
13	0	0	0	0	501	506	
14	0	0	0	0	500	504	
15	0	0	0	0	506	499	
0	0	0	0	0	503	488	
1	0	0	0	0	505	492	
2	0	0	0	0	517	496	
3	0	0	0	0	525	506	
4	0	0	0	0	531	511	
5	0	0	0	0	518	519	
6	0	0	0	0	514	519	
7	0	0	0	0	515	517	
8	0	0	0	0	514	515	
9	0	0	0	0	511	510	
10	0	0	0	0	516	505	
11	0	0	0	0	521	513	
12	0	0	0	0	524	521	
13	0	0	0	0	539	511	
14	0	0	0	0	553	496	
15	0	0	0	0	556	504	
0	0	0	0	0	549	539	
1	0	0	0	0	523	528	
2	0	0	0	0	502	505	
3	0	0	0	0	490	490	
4	0	0	0	0	481	481	
5	0	0	0	0	460	482	
6	0	0	0	0	445	485	
7	0	0	0	0	442	498	
8	0	0	0	0	466	503	
9	0	0	0	0	494	514	
10	0	0	0	0	504	529	
11	0	0	0	0	508	527	
12	0	0	0	0	520	520	
13	0	0	0	0	528	515	
14	0	0	0	0	532	509	
15	0	0	0	0	536	508	
0	0	0	0	0	533	503	
1	0	0	0	0	529	506	
2	0	0	0	0	525	502	
3	0	0	0	0	524	501	
4	0	0	0	0	528	509	
5	0	0	0	0	529	505	
6	0	0	0	0	532	503	
7	0	0	0	0	532	496	
8	0	0	0	0	524	489	
9	0	0	0	0	514	490	
10	0	0	0	0	502	499	
11	0	0	0	0	494	511	
12	0	0	0	0	501	508	
13	0	0	0	0	502	519	
14	0	0	0	0	495	528	
15	0	0	0	0	502	527	
0	0	0	0	0	510	528	
1	0	0	0	0	514	523	
2	0	0	0	0	513	508	
3	0	0	0	0	518	503	
4	0	0	0	0	519	502	
5	0	0	0	0	522	501	
6	0	0	0	0	526	497	
7	0	0	0	0	521	495	
8	0	0	0	0	516	499	
9	0	0	0	0	511	504	
10	0	0	0	0	508	504	
11	0	0	0	0	508	498	
12	0	0	0	0	506	494	
13	0	0	0	0	497	500	
14	0	0	0	0	496	508	
15	0	0	0	0	481	515	
0	0	0	0	0	489	502	
1	0	0	0	0	521	507	
2	0	0	0	0	537	513	
3	0	0	0	0	544	515	
4	0	0	0	0	535	519	
5	0	0	0	0	507	519	
6	0	0	0	0	492	518	
7	0	0	0	0	493	521	
8	0	0	0	0	504	515	
9	0	0	0	0	524	506	
10	0	0	0	0	519	500	
11	0	0	0	0	502	502	
12	0	0	0	0	483	511	
13	0	0	0	0	486	508	
14	0	0	0	0	504	505	
15	0	0	0	0	514	503	
0	0	0	0	0	509	490	
1	0	0	0	0	501	494	
2	0	0	0	0	498	499	
3	0	0	0	0	518	508	
4	0	0	0	0	540	505	
5	0	0	0	0	542	514	
6	0	0	0	0	531	519	
7	0	0	0	0	517	516	
8	0	0	0	0	512	514	
9	0	0	0	0	509	513	
10	0	0	0	0	511	514	
11	0	0	0	0	524	518	
12	0	0	0	0	532	508	
13	0	0	0	0	534	499	
14	0	0	0	0	528	502	
15	0	0	0	0	522	498	
0	0	0	0	0	507	510	
1	0	0	0	0	502	517	
2	0	0	0	0	504	509	
3	0	0	0	0	501	494	
4	0	0	0	0	494	474	
5	0	0	0	0	460	488	
6	0	0	0	0	487	498	
7	0	0	0	0	510	506	
8	0	0	0	0	529	511	
9	0	0	0	0	530	523	
10	0	0	0	0	524	528	
11	0	0	0	0	518	527	
12	0	0	0	0	509	525	
13	0	0	0	0	499	525	
14	0	0	0	0	498	519	
15	0	0	0	0	494	510	
0	0	0	0	0	500	511	
1	0	0	0	0	503	510	
2	0	0	0	0	504	511	
3	0	0	0	0	513	498	
4	0	0	0	0	521	495	
5	0	0	0	0	515	497	
6	0	0	0	0	523	499	
7	0	0	0	0	541	495	
8	0	0	0	0	545	487	
9	0	0	0	0	519	489	
10	0	0	0	0	492	493	
11	0	0	0	0	492	496	
12	0	0	0	0	500	495	
13	0	0	0	0	500	511	
14	0	0	0	0	519	527	
15	0	0	0	0	542	521	
0	0	0	0	0	545	526	
1	0	0	0	0	521	527	
2	0	0	0	0	510	529	
3	0	0	0	0	503	527	
4	0	0	0	0	518	526	
5	0	0	0	0	508	513	
6	0	0	0	0	512	505	
7	0	0	0	0	504	502	
8	0	0	0	0	485	500	
9	0	0	0	0	476	500	
10	0	0	0	0	498	492	
11	0	0	0	0	524	491	
12	0	0	0	0	553	479	
13	0	0	0	0	548	483	
14	0	0	0	0	537	481	
15	0	0	0	0	511	490	
0	0	0	0	0	493	504	
1	0	0	0	0	492	525	
2	0	0	0	0	486	548	
3	0	0	0	0	499	536	
4	0	0	0	0	473	531	
5	0	0	0	0	480	529	
6	0	0	0	0	497	519	
7	0	0	0	0	505	507	
8	0	0	0	0	521	493	
9	0	0	0	0	515	487	
10	0	0	0	0	504	495	
11	0	0	0	0	532	499	
12	0	0	0	0	538	503	
13	0	0	0	0	541	497	
14	0	0	0	0	533	503	
15	0	0	0	0	546	510	
0	0	0	0	0	553	508	
1	0	0	0	0	551	502	
2	0	0	0	0	524	504	
3	0	0	0	0	506	502	
4	0	0	0	0	484	498	
5	0	0	0	0	459	516	
6	0	0	0	0	457	519	
7	0	0	0	0	459	515	
8	0	0	0	0	465	520	
9	0	0	0	0	487	519	
10	0	0	0	0	519	516	
11	0	0	0	0	550	509	
12	0	0	0	0	556	505	
13	0	0	0	0	542	506	
14	0	0	0	0	556	495	
15	0	0	0	0	569	498	
0	0	0	0	0	561	514	
1	0	0	0	0	554	510	
2	0	0	0	0	541	508	
3	0	0	0	0	557	496	
4	0	0	0	0	557	484	
5	0	0	0	0	515	496	
6	0	0	0	0	482	500	
7	0	0	0	0	513	513	
8	0	0	0	0	483	512	
9	0	0	0	0	422	514	
10	0	0	0	0	405	524	
11	0	0	0	0	394	534	
12	0	0	0	0	417	536	
13	0	0	0	0	455	522	
14	0	0	0	0	511	499	
15	0	0	0	0	528	500	
0	0	0	0	0	532	505	
1	0	0	0	0	542	505	
2	0	0	0	0	548	497	
3	0	0	0	0	561	496	
4	0	0	0	0	558	500	
5	0	0	0	0	556	495	
6	0	0	0	0	559	500	
7	0	0	0	0	551	503	
8	0	0	0	0	542	501	
9	0	0	0	0	531	499	
10	0	0	0	0	503	499	
11	0	0	0	0	475	509	
12	0	0	0	0	466	515	
13	0	0	0	0	476	521	
14	0	0	0	0	512	527	
15	0	0	0	0	520	522	
0	0	0	0	0	507	513	
1	0	0	0	0	491	502	
2	0	0	0	0	472	508	
3	0	0	0	0	467	518	
4	0	0	0	0	495	527	
5	0	0	0	0	540	516	
6	0	0	0	0	561	495	
7	0	0	0	0	579	494	
8	0	0	0	0	574	498	
9	0	0	0	0	555	500	
10	0	0	0	0	531	494	
11	0	0	0	0	514	489	
12	0	0	0	0	497	485	
13	0	0	0	0	459	496	
14	0	0	0	0	437	506	
15	0	0	0	0	466	509	
0	0	0	0	0	491	504	
1	0	0	0	0	494	521	
2	0	0	0	0	482	530	
3	0	0	0	0	481	525	
4	0	0	0	0	511	524	
5	0	0	0	0	541	520	
6	0	0	0	0	548	516	
7	0	0	0	0	552	513	
8	0	0	0	0	543	512	
9	0	0	0	0	532	512	
10	0	0	0	0	515	511	
11	0	0	0	0	507	503	
12	0	0	0	0	504	480	
13	0	0	0	0	500	484	
14	0	0	0	0	511	489	
15	0	0	0	0	529	497	
0	0	0	0	0	529	490	
1	0	0	0	0	520	502	
2	0	0	0	0	514	507	
3	0	0	0	0	509	509	
4	0	0	0	0	514	508	
5	0	0	0	0	512	517	
6	0	0	0	0	525	528	
7	0	0	0	0	508	526	
8	0	0	0	0	509	523	
9	0	0	0	0	524	512	
10	0	0	0	0	514	509	
11	0	0	0	0	502	510	
12	0	0	0	0	484	505	
13	0	0	0	0	487	509	
14	0	0	0	0	490	512	
15	0	0	0	0	489	508	
0	0	0	0	0	499	499	
1	0	0	0	0	504	502	
2	0	0	0	0	505	511	
3	0	0	0	0	513	498	
4	0	0	0	0	527	479	
5	0	0	0	0	525	482	
6	0	0	0	0	520	493	
7	0	0	0	0	526	510	
8	0	0	0	0	529	507	
9	0	0	0	0	501	517	
10	0	0	0	0	472	539	
11	0	0	0	0	467	539	
12	0	0	0	0	485	529	
13	0	0	0	0	529	515	
14	0	0	0	0	544	510	
15	0	0	0	0	583	506	
0	0	0	0	0	557	499	
1	0	0	0	0	526	495	
2	0	0	0	0	497	504	
3	0	0	0	0	487	504	
4	0	0	0	0	498	504	
5	0	0	0	0	496	506	
6	0	0	0	0	483	501	
7	0	0	0	0	467	499	
8	0	0	0	0	481	493	
9	0	0	0	0	484	496	
10	0	0	0	0	499	500	
11	0	0	0	0	526	504	
12	0	0	0	0	531	508	
13	0	0	0	0	525	520	
14	0	0	0	0	528	525	
15	0	0	0	0	523	517	
0	0	0	0	0	517	518	
1	0	0	0	0	518	521	
2	0	0	0	0	523	515	
3	0	0	0	0	544	503	
4	0	0	0	0	528	496	
5	0	0	0	0	507	509	
6	0	0	0	0	516	504	
7	0	0	0	0	516	510	
8	0	0	0	0	512	511	
9	0	0	0	0	515	508	
10	0	0	0	0	521	504	
11	0	0	0	0	519	493	
12	0	0	0	0	522	484	
13	0	0	0	0	515	486	
14	0	0	0	0	517	501	
15	0	0	0	0	550	506	
0	0	0	0	0	611	506	
1	0	0	0	0	603	515	
2	0	0	0	0	558	519	
3	0	0	0	0	499	511	
4	0	0	0	0	441	513	
5	0	0	0	0	408	520	
6	0	0	0	0	391	529	
7	0	0	0	0	396	522	
8	0	0	0	0	412	515	
9	0	0	0	0	445	506	
10	0	0	0	0	468	501	
11	0	0	0	0	503	503	
12	0	0	0	0	526	508	
13	0	0	0	0	541	506	
14	0	0	0	0	549	503	
15	0	0	0	0	551	497	
0	0	0	0	0	549	485	
1	0	0	0	0	545	489	
2	0	0	0	0	534	491	
3	0	0	0	0	527	499	
4	0	0	0	0	523	508	
5	0	0	0	0	516	520	
6	0	0	0	0	527	533	
7	0	0	0	0	555	527	
8	0	0	0	0	561	527	
9	0	0	0	0	568	515	
10	0	0	0	0	573	494	
11	0	0	0	0	550	493	
12	0	0	0	0	527	501	
13	0	0	0	0	497	516	
14	0	0	0	0	469	513	
15	0	0	0	0	430	513	
0	0	0	0	0	407	513	
1	0	0	0	0	406	507	
2	0	0	0	0	432	505	
3	0	0	0	0	474	503	
4	0	0	0	0	519	487	
5	0	0	0	0	550	487	
6	0	0	0	0	555	498	
7	0	0	0	0	550	506	
8	0	0	0	0	550	507	
9	0	0	0	0	541	520	
10	0	0	0	0	549	531	
11	0	0	0	0	541	523	
12	0	0	0	0	508	512	
13	0	0	0	0	488	507	
14	0	0	0	0	486	500	
15	0	0	0	0	500	506	
0	0	0	0	0	503	516	
1	0	0	0	0	515	516	
2	0	0	0	0	527	500	
3	0	0	0	0	537	501	
4	0	0	0	0	533	504	
5	0	0	0	0	497	506	
6	0	0	0	0	502	504	
7	0	0	0	0	518	497	
8	0	0	0	0	530	484	
9	0	0	0	0	508	484	
10	0	0	0	0	492	498	
11	0	0	0	0	513	512	
12	0	0	0	0	539	515	
13	0	0	0	0	541	517	
14	0	0	0	0	513	527	
15	0	0	0	0	503	530	
0	0	0	0	0	504	525	
1	0	0	0	0	505	516	
2	0	0	0	0	512	514	
3	0	0	0	0	521	510	
4	0	0	0	0	516	510	
5	0	0	0	0	511	504	
6	0	0	0	0	502	501	
7	0	0	0	0	491	501	
8	0	0	0	0	488	504	
9	0	0	0	0	493	499	
10	0	0	0	0	497	498	
11	0	0	0	0	507	489	
12	0	0	0	0	517	486	
13	0	0	0	0	518	493	
14	0	0	0	0	519	493	
15	0	0	0	0	530	509	
0	0	0	0	0	536	518	
1	0	0	0	0	525	523	
2	0	0	0	0	519	531	
3	0	0	0	0	507	533	
4	0	0	0	0	488	524	
5	0	0	0	0	477	513	
6	0	0	0	0	480	507	
7	0	0	0	0	509	507	
8	0	0	0	0	512	504	
9	0	0	0	0	513	503	
10	0	0	0	0	531	502	
11	0	0	0	0	529	505	
12	0	0	0	0	529	507	
13	0	0	0	0	549	504	
14	0	0	0	0	559	503	
15	0	0	0	0	532	507	
0	0	0	0	0	528	490	
1	0	0	0	0	524	494	
2	0	0	0	0	513	488	
3	0	0	0	0	492	486	
4	0	0	0	0	465	502	
5	0	0	0	0	458	522	
6	0	0	0	0	474	529	
7	0	0	0	0	499	521	
8	0	0	0	0	499	519	
9	0	0	0	0	516	513	
10	0	0	0	0	542	509	
11	0	0	0	0	543	509	
12	0	0	0	0	521	507	
13	0	0	0	0	512	504	
14	0	0	0	0	503	502	
15	0	0	0	0	492	503	
0	0	0	0	0	484	500	
1	0	0	0	0	497	502	
2	0	0	0	0	525	510	
3	0	0	0	0	541	514	
4	0	0	0	0	523	501	
5	0	0	0	0	551	500	
6	0	0	0	0	551	504	
7	0	0	0	0	511	508	
8	0	0	0	0	502	505	
9	0	0	0	0	474	517	
10	0	0	0	0	425	524	
11	0	0	0	0	450	518	
12	0	0	0	0	494	513	
13	0	0	0	0	526	508	
14	0	0	0	0	529	510	
15	0	0	0	0	550	515	
0	0	0	0	0	519	506	
1	0	0	0	0	493	510	
2	0	0	0	0	496	504	
3	0	0	0	0	499	504	
4	0	0	0	0	500	511	
5	0	0	0	0	509	507	
6	0	0	0	0	515	499	
7	0	0	0	0	512	496	
8	0	0	0	0	515	489	
9	0	0	0	0	522	494	
10	0	0	0	0	527	496	
11	0	0	0	0	529	502	
12	0	0	0	0	535	502	
13	0	0	0	0	526	514	
14	0	0	0	0	519	525	
15	0	0	0	0	520	524	
0	0	0	0	0	525	523	
1	0	0	0	0	521	520	
2	0	0	0	0	516	520	
3	0	0	0	0	512	510	
4	0	0	0	0	518	509	
5	0	0	0	0	536	505	
6	0	0	0	0	537	493	
7	0	0	0	0	528	496	
8	0	0	0	0	508	502	
9	0	0	0	0	495	506	
10	0	0	0	0	477	507	
11	0	0	0	0	473	508	
12	0	0	0	0	487	496	
13	0	0	0	0	512	493	
14	0	0	0	0	523	492	
15	0	0	0	0	518	503	
0	0	0	0	0	513	504	
1	0	0	0	0	514	524	
2	0	0	0	0	526	529	
3	0	0	0	0	515	528	
4	0	0	0	0	512	521	
5	0	0	0	0	486	517	
6	0	0	0	0	481	510	
7	0	0	0	0	479	507	
8	0	0	0	0	476	506	
9	0	0	0	0	487	509	
10	0	0	0	0	512	508	
11	0	0	0	0	536	509	
12	0	0	0	0	539	506	
13	0	0	0	0	541	499	
14	0	0	0	0	556	499	
15	0	0	0	0	563	494	
0	0	0	0	0	557	487	
1	0	0	0	0	556	489	
2	0	0	0	0	541	493	
3	0	0	0	0	513	504	
4	0	0	0	0	495	504	
5	0	0	0	0	463	517	
6	0	0	0	0	450	529	
7	0	0	0	0	462	529	
8	0	0	0	0	474	526	
9	0	0	0	0	476	515	
10	0	0	0	0	489	511	
11	0	0	0	0	497	511	
12	0	0	0	0	498	509	
13	0	0	0	0	521	507	
14	0	0	0	0	527	510	
15	0	0	0	0	516	506	
0	0	0	0	0	532	507	
1	0	0	0	0	539	505	
2	0	0	0	0	532	500	
3	0	0	0	0	530	494	
4	0	0	0	0	524	488	
5	0	0	0	0	511	491	
6	0	0	0	0	508	495	
7	0	0	0	0	516	501	
8	0	0	0	0	526	500	
9	0	0	0	0	531	517	
10	0	0	0	0	534	533	
11	0	0	0	0	524	530	
12	0	0	0	0	499	526	
13	0	0	0	0	490	516	
14	0	0	0	0	473	509	
15	0	0	0	0	481	509	
0	0	0	0	0	516	510	
1	0	0	0	0	543	509	
2	0	0	0	0	546	501	
3	0	0	0	0	528	500	
4	0	0	0	0	503	507	
5	0	0	0	0	481	504	
6	0	0	0	0	473	499	
7	0	0	0	0	475	492	
8	0	0	0	0	490	484	
9	0	0	0	0	519	491	
10	0	0	0	0	519	495	
11	0	0	0	0	527	497	
12	0	0	0	0	533	507	
13	0	0	0	0	528	527	
14	0	0	0	0	525	531	
15	0	0	0	0	518	525	
0	0	0	0	0	508	526	
1	0	0	0	0	512	517	
2	0	0	0	0	503	511	
3	0	0	0	0	499	507	
4	0	0	0	0	496	508	
5	0	0	0	0	503	511	
6	0	0	0	0	513	509	
7	0	0	0	0	524	503	
8	0	0	0	0	532	504	
9	0	0	0	0	526	502	
10	0	0	0	0	516	502	
11	0	0	0	0	518	499	
12	0	0	0	0	514	491	
13	0	0	0	0	515	496	
14	0	0	0	0	524	499	
15	0	0	0	0	532	503	
0	0	0	0	0	538	508	
1	0	0	0	0	531	519	
2	0	0	0	0	519	530	
3	0	0	0	0	511	526	
4	0	0	0	0	507	518	
5	0	0	0	0	486	508	
6	0	0	0	0	474	506	
7	0	0	0	0	503	504	
8	0	0	0	0	520	505	
9	0	0	0	0	524	506	
10	0	0	0	0	523	500	
11	0	0	0	0	518	495	
12	0	0	0	0	527	496	
13	0	0	0	0	504	502	
14	0	0	0	0	494	502	
15	0	0	0	0	487	506	
0	0	0	0	0	494	502	
1	0	0	0	0	485	511	
2	0	0	0	0	446	511	
3	0	0	0	0	447	509	
4	0	0	0	0	459	505	
5	0	0	0	0	446	518	
6	0	0	0	0	483	522	
7	0	0	0	0	530	519	
8	0	0	0	0	549	518	
9	0	0	0	0	554	513	
10	0	0	0	0	552	508	
11	0	0	0	0	556	509	
12	0	0	0	0	551	507	
13	0	0	0	0	540	508	
14	0	0	0	0	537	503	
15	0	0	0	0	537	499	
0	0	0	0	0	532	502	
1	0	0	0	0	537	501	
2	0	0	0	0	528	500	
3	0	0	0	0	519	497	
4	0	0	0	0	515	487	
5	0	0	0	0	509	496	
6	0	0	0	0	506	495	
7	0	0	0	0	497	506	
8	0	0	0	0	491	511	
9	0	0	0	0	487	524	
10	0	0	0	0	488	525	
11	0	0	0	0	502	521	
12	0	0	0	0	514	520	
13	0	0	0	0	517	513	
14	0	0	0	0	519	510	
15	0	0	0	0	513	508	
0	0	0	0	0	518	507	
1	0	0	0	0	507	511	
2	0	0	0	0	510	512	
3	0	0	0	0	524	510	
4	0	0	0	0	533	501	
5	0	0	0	0	519	509	
6	0	0	0	0	499	512	
7	0	0	0	0	502	501	
8	0	0	0	0	514	486	
9	0	0	0	0	526	489	
10	0	0	0	0	515	491	
11	0	0	0	0	503	500	
12	0	0	0	0	493	501	
13	0	0	0	0	481	518	
14	0	0	0	0	487	526	
15	0	0	0	0	500	526	
0	0	0	0	0	505	522	
1	0	0	0	0	513	517	
2	0	0	0	0	528	507	
3	0	0	0	0	527	504	
4	0	0	0	0	516	504	
5	0	0	0	0	514	507	
6	0	0	0	0	513	509	
7	0	0	0	0	517	504	
8	0	0	0	0	513	509	
9	0	0	0	0	515	507	
10	0	0	0	0	526	503	
11	0	0	0	0	526	496	
12	0	0	0	0	521	491	
13	0	0	0	0	528	495	
14	0	0	0	0	528	496	
15	0	0	0	0	521	505	
0	0	0	0	0	512	512	
1	0	0	0	0	524	527	
2	0	0	0	0	527	526	
3	0	0	0	0	503	519	
4	0	0	0	0	470	515	
5	0	0	0	0	467	514	
6	0	0	0	0	493	496	
7	0	0	0	0	489	501	
8	0	0	0	0	476	501	
9	0	0	0	0	480	510	
10	0	0	0	0	514	508	
11	0	0	0	0	527	509	
12	0	0	0	0	530	514	
13	0	0	0	0	537	512	
14	0	0	0	0	523	509	
15	0	0	0	0	522	502	
0	0	0	0	0	544	487	
1	0	0	0	0	541	491	
2	0	0	0	0	516	496	
3	0	0	0	0	502	505	
4	0	0	0	0	472	507	
5	0	0	0	0	465	519	
6	0	0	0	0	473	526	
7	0	0	0	0	491	525	
8	0	0	0	0	507	519	
9	0	0	0	0	524	513	
10	0	0	0	0	529	508	
11	0	0	0	0	528	505	
12	0	0	0	0	529	504	
13	0	0	0	0	537	504	
14	0	0	0	0	541	500	
15	0	0	0	0	554	506	
0	0	0	0	0	555	507	
1	0	0	0	0	531	508	
2	0	0	0	0	509	503	
3	0	0	0	0	493	503	
4	0	0	0	0	495	492	
5	0	0	0	0	481	495	
6	0	0	0	0	466	501	
7	0	0	0	0	475	505	
8	0	0	0	0	488	504	
9	0	0	0	0	508	516	
10	0	0	0	0	516	523	
11	0	0	0	0	527	520	
12	0	0	0	0	532	516	
13	0	0	0	0	539	517	
14	0	0	0	0	539	513	
15	0	0	0	0	537	507	
0	0	0	0	0	525	504	
1	0	0	0	0	512	508	
2	0	0	0	0	513	504	
3	0	0	0	0	501	507	
4	0	0	0	0	495	513	
5	0	0	0	0	500	507	
6	0	0	0	0	498	508	
7	0	0	0	0	499	502	
8	0	0	0	0	512	490	
9	0	0	0	0	515	490	
10	0	0	0	0	496	494	
11	0	0	0	0	496	499	
12	0	0	0	0	505	502	
13	0	0	0	0	507	523	
14	0	0	0	0	518	530	
15	0	0	0	0	525	525	
0	0	0	0	0	536	523	
1	0	0	0	0	546	517	
2	0	0	0	0	521	509	
3	0	0	0	0	510	507	
4	0	0	0	0	512	504	
5	0	0	0	0	497	500	
6	0	0	0	0	492	504	
7	0	0	0	0	482	506	
8	0	0	0	0	463	508	
9	0	0	0	0	474	502	
10	0	0	0	0	485	503	
11	0	0	0	0	494	498	
12	0	0	0	0	512	490	
13	0	0	0	0	527	494	
14	0	0	0	0	531	499	
15	0	0	0	0	536	501	
0	0	0	0	0	534	504	
1	0	0	0	0	518	518	
2	0	0	0	0	513	527	
3	0	0	0	0	520	525	
4	0	0	0	0	529	524	
5	0	0	0	0	528	518	
6	0	0	0	0	522	511	
7	0	0	0	0	516	511	
8	0	0	0	0	513	511	
9	0	0	0	0	516	508	
10	0	0	0	0	523	502	
11	0	0	0	0	534	499	
12	0	0	0	0	560	499	
13	0	0	0	0	556	504	
14	0	0	0	0	537	503	
15	0	0	0	0	511	498	
0	0	0	0	0	489	495	
1	0	0	0	0	483	501	
2	0	0	0	0	460	503	
3	0	0	0	0	451	506	
4	0	0	0	0	465	505	
5	0	0	0	0	489	515	
6	0	0	0	0	500	524	
7	0	0	0	0	513	523	
8	0	0	0	0	513	516	
9	0	0	0	0	516	507	
10	0	0	0	0	518	508	
11	0	0	0	0	520	509	
12	0	0	0	0	527	508	
13	0	0	0	0	515	504	
14	0	0	0	0	513	505	
15	0	0	0	0	523	505	
0	0	0	0	0	524	512	
1	0	0	0	0	525	512	
2	0	0	0	0	534	507	
3	0	0	0	0	534	497	
4	0	0	0	0	515	491	
5	0	0	0	0	499	496	
6	0	0	0	0	485	494	
7	0	0	0	0	482	502	
8	0	0	0	0	492	504	
9	0	0	0	0	499	519	
10	0	0	0	0	499	525	
11	0	0	0	0	510	522	
12	0	0	0	0	523	519	
13	0	0	0	0	537	513	
14	0	0	0	0	541	510	
15	0	0	0	0	538	505	
0	0	0	0	0	529	500	
1	0	0	0	0	522	501	
2	0	0	0	0	514	503	
3	0	0	0	0	513	505	
4	0	0	0	0	512	510	
5	0	0	0	0	523	513	
6	0	0	0	0	540	511	
7	0	0	0	0	549	499	
8	0	0	0	0	523	491	
9	0	0	0	0	496	490	
10	0	0	0	0	473	498	
11	0	0	0	0	476	503	
12	0	0	0	0	476	505	
13	0	0	0	0	464	521	
14	0	0	0	0	478	527	
15	0	0	0	0	473	522	
0	0	0	0	0	476	521	
1	0	0	0	0	494	515	
2	0	0	0	0	512	511	
3	0	0	0	0	524	506	
4	0	0	0	0	529	502	
5	0	0	0	0	538	504	
6	0	0	0	0	549	506	
7	0	0	0	0	553	503	
8	0	0	0	0	547	505	
9	0	0	0	0	532	504	
10	0	0	0	0	518	507	
11	0	0	0	0	509	502	
12	0	0	0	0	502	496	
13	0	0	0	0	510	503	
14	0	0	0	0	504	502	
15	0	0	0	0	505	500	
0	0	0	0	0	514	496	
1	0	0	0	0	514	511	
2	0	0	0	0	511	522	
3	0	0	0	0	521	519	
4	0	0	0	0	551	521	
5	0	0	0	0	543	519	
6	0	0	0	0	528	515	
7	0	0	0	0	501	513	
8	0	0	0	0	467	510	
9	0	0	0	0	450	505	
10	0	0	0	0	456	501	
11	0	0	0	0	469	506	
12	0	0	0	0	481	507	
13	0	0	0	0	513	503	
14	0	0	0	0	536	500	
15	0	0	0	0	539	497	
0	0	0	0	0	539	488	
1	0	0	0	0	530	492	
2	0	0	0	0	525	499	
3	0	0	0	0	521	501	
4	0	0	0	0	515	502	
5	0	0	0	0	499	518	
6	0	0	0	0	497	526	
7	0	0	0	0	510	525	
8	0	0	0	0	523	522	
9	0	0	0	0	521	518	
10	0	0	0	0	528	512	
11	0	0	0	0	545	505	
12	0	0	0	0	543	504	
13	0	0	0	0	532	502	
14	0	0	0	0	521	504	
15	0	0	0	0	515	506	
0	0	0	0	0	507	510	
1	0	0	0	0	497	507	
2	0	0	0	0	481	507	
3	0	0	0	0	472	502	
4	0	0	0	0	486	493	
5	0	0	0	0	503	495	
6	0	0	0	0	518	498	
7	0	0	0	0	528	502	
8	0	0	0	0	529	501	
9	0	0	0	0	525	515	
10	0	0	0	0	524	521	
11	0	0	0	0	519	528	
12	0	0	0	0	514	521	
13	0	0	0	0	511	513	
14	0	0	0	0	493	511	
15	0	0	0	0	481	511	
0	0	0	0	0	480	511	
1	0	0	0	0	483	507	
2	0	0	0	0	504	504	
3	0	0	0	0	528	502	
4	0	0	0	0	541	503	
5	0	0	0	0	532	503	
6	0	0	0	0	521	505	
7	0	0	0	0	518	499	
8	0	0	0	0	510	494	
9	0	0	0	0	502	492	
10	0	0	0	0	499	499	
11	0	0	0	0	504	510	
12	0	0	0	0	526	508	
13	0	0	0	0	536	521	
14	0	0	0	0	542	522	
15	0	0	0	0	531	519	
0	0	0	0	0	509	520	
1	0	0	0	0	490	520	
2	0	0	0	0	495	515	
3	0	0	0	0	498	510	
4	0	0	0	0	481	511	
5	0	0	0	0	478	508	
6	0	0	0	0	496	500	
7	0	0	0	0	512	498	
8	0	0	0	0	514	498	
9	0	0	0	0	519	499	
10	0	0	0	0	521	499	
11	0	0	0	0	533	496	
12	0	0	0	0	540	489	
13	0	0	0	0	537	492	
14	0	0	0	0	539	498	
15	0	0	0	0	532	506	
0	0	0	0	0	513	510	
1	0	0	0	0	496	527	
2	0	0	0	0	498	527	
3	0	0	0	0	483	522	
4	0	0	0	0	483	523	
5	0	0	0	0	492	517	
6	0	0	0	0	511	512	
7	0	0	0	0	521	509	
8	0	0	0	0	513	506	
9	0	0	0	0	515	504	
10	0	0	0	0	518	500	
11	0	0	0	0	521	498	
12	0	0	0	0	517	499	
13	0	0	0	0	519	497	
14	0	0	0	0	515	506	
15	0	0	0	0	518	504	
0	0	0	0	0	526	493	
1	0	0	0	0	527	500	
2	0	0	0	0	523	505	
3	0	0	0	0	525	506	
4	0	0	0	0	514	509	
5	0	0	0	0	502	524	
6	0	0	0	0	498	526	
7	0	0	0	0	496	520	
8	0	0	0	0	502	514	
9	0	0	0	0	490	514	
10	0	0	0	0	490	515	
11	0	0	0	0	487	510	
12	0	0	0	0	487	508	
13	0	0	0	0	500	509	
14	0	0	0	0	516	505	
15	0	0	0	0	526	507	
0	0	0	0	0	530	503	
1	0	0	0	0	528	497	
2	0	0	0	0	529	495	
3	0	0	0	0	519	494	
4	0	0	0	0	509	491	
5	0	0	0	0	507	497	
6	0	0	0	0	518	499	
7	0	0	0	0	528	503	
8	0	0	0	0	528	504	
9	0	0	0	0	515	522	
10	0	0	0	0	515	524	
11	0	0	0	0	509	518	
12	0	0	0	0	515	515	
13	0	0	0	0	551	512	
14	0	0	0	0	574	515	
15	0	0	0	0	577	515	
0	0	0	0	0	551	510	
1	0	0	0	0	523	508	
2	0	0	0	0	490	506	
3	0	0	0	0	440	508	
4	0	0	0	0	397	508	
5	0	0	0	0	388	503	
6	0	0	0	0	435	501	
7	0	0	0	0	481	496	
8	0	0	0	0	503	492	
9	0	0	0	0	517	497	
10	0	0	0	0	524	498	
11	0	0	0	0	526	503	
12	0	0	0	0	530	507	
13	0	0	0	0	526	521	
14	0	0	0	0	536	524	
15	0	0	0	0	543	523	
0	0	0	0	0	536	517	
1	0	0	0	0	527	515	
2	0	0	0	0	531	508	
3	0	0	0	0	529	509	
4	0	0	0	0	523	507	
5	0	0	0	0	513	507	
6	0	0	0	0	511	505	
7	0	0	0	0	516	506	
8	0	0	0	0	519	505	
9	0	0	0	0	522	504	
10	0	0	0	0	521	501	
11	0	0	0	0	517	499	
12	0	0	0	0	507	495	
13	0	0	0	0	507	498	
14	0	0	0	0	513	503	
15	0	0	0	0	517	502	
0	0	0	0	0	506	506	
1	0	0	0	0	485	523	
2	0	0	0	0	485	527	
3	0	0	0	0	495	521	
4	0	0	0	0	512	518	
5	0	0	0	0	516	512	
6	0	0	0	0	525	509	
7	0	0	0	0	529	504	
8	0	0	0	0	526	504	
9	0	0	0	0	527	507	
10	0	0	0	0	515	507	
11	0	0	0	0	514	507	
12	0	0	0	0	514	508	
13	0	0	0	0	509	509	
14	0	0	0	0	510	504	
15	0	0	0	0	516	496	
0	0	0	0	0	513	489	
1	0	0	0	0	508	493	
2	0	0	0	0	503	497	
3	0	0	0	0	497	503	
4	0	0	0	0	492	504	
5	0	0	0	0	495	520	
6	0	0	0	0	503	525	
7	0	0	0	0	506	522	
8	0	0	0	0	518	516	
9	0	0	0	0	544	515	
10	0	0	0	0	547	511	
11	0	0	0	0	542	507	
12	0	0	0	0	521	504	
13	0	0	0	0	505	508	
14	0	0	0	0	502	505	
15	0	0	0	0	504	503	
0	0	0	0	0	521	502	
1	0	0	0	0	521	503	
2	0	0	0	0	516	500	
3	0	0	0	0	513	494	
4	0	0	0	0	507	491	
5	0	0	0	0	501	496	
6	0	0	0	0	484	505	
7	0	0	0	0	471	510	
8	0	0	0	0	475	514	
9	0	0	0	0	478	526	
10	0	0	0	0	488	527	
11	0	0	0	0	501	525	
12	0	0	0	0	518	519	
13	0	0	0	0	535	512	
14	0	0	0	0	545	507	
15	0	0	0	0	546	503	
0	0	0	0	0	539	500	
1	0	0	0	0	531	499	
2	0	0	0	0	513	502	
3	0	0	0	0	508	508	
4	0	0	0	0	505	511	
5	0	0	0	0	503	504	
6	0	0	0	0	512	508	
7	0	0	0	0	507	501	
8	0	0	0	0	498	490	
9	0	0	0	0	499	494	
10	0	0	0	0	513	499	
11	0	0	0	0	521	504	
12	0	0	0	0	519	510	
13	0	0	0	0	509	527	
14	0	0	0	0	510	529	
15	0	0	0	0	508	526	
0	0	0	0	0	507	519	
1	0	0	0	0	510	510	
2	0	0	0	0	518	505	
3	0	0	0	0	533	504	
4	0	0	0	0	555	502	
5	0	0	0	0	561	505	
6	0	0	0	0	548	504	
7	0	0	0	0	524	504	
8	0	0	0	0	505	504	
9	0	0	0	0	496	507	
10	0	0	0	0	492	506	
11	0	0	0	0	469	499	
12	0	0	0	0	477	490	
13	0	0	0	0	510	494	
14	0	0	0	0	504	503	
15	0	0	0	0	502	506	
0	0	0	0	0	500	510	
1	0	0	0	0	494	523	
2	0	0	0	0	509	517	
3	0	0	0	0	507	515	
4	0	0	0	0	492	516	
5	0	0	0	0	489	519	
6	0	0	0	0	503	517	
7	0	0	0	0	513	515	
8	0	0	0	0	492	509	
9	0	0	0	0	502	509	
10	0	0	0	0	518	505	
11	0	0	0	0	527	501	
12	0	0	0	0	529	501	
13	0	0	0	0	538	500	
14	0	0	0	0	540	497	
15	0	0	0	0	549	497	
0	0	0	0	0	554	490	
1	0	0	0	0	552	496	
2	0	0	0	0	538	507	
3	0	0	0	0	516	506	
4	0	0	0	0	493	507	
5	0	0	0	0	460	526	
6	0	0	0	0	458	526	
7	0	0	0	0	466	522	
8	0	0	0	0	480	515	
9	0	0	0	0	490	509	
10	0	0	0	0	504	510	
11	0	0	0	0	525	509	
12	0	0	0	0	532	509	
13	0	0	0	0	532	504	
14	0	0	0	0	535	504	
15	0	0	0	0	530	507	
0	0	0	0	0	527	508	
1	0	0	0	0	522	504	
2	0	0	0	0	516	507	
3	0	0	0	0	522	498	
4	0	0	0	0	510	495	
5	0	0	0	0	511	497	
6	0	0	0	0	516	500	
7	0	0	0	0	519	503	
8	0	0	0	0	515	504	
9	0	0	0	0	495	519	
10	0	0	0	0	492	519	
11	0	0	0	0	502	517	
12	0	0	0	0	508	515	
13	0	0	0	0	487	515	
14	0	0	0	0	484	516	
15	0	0	0	0	503	512	
0	0	0	0	0	521	512	
1	0	0	0	0	529	506	
2	0	0	0	0	530	502	
3	0	0	0	0	527	504	
4	0	0	0	0	520	506	
5	0	0	0	0	517	503	
6	0	0	0	0	516	502	
7	0	0	0	0	520	493	
8	0	0	0	0	517	489	
9	0	0	0	0	510	493	
10	0	0	0	0	506	503	
11	0	0	0	0	511	506	
12	0	0	0	0	503	511	
13	0	0	0	0	499	527	
14	0	0	0	0	503	526	
15	0	0	0	0	509	521	
0	0	0	0	0	512	520	
1	0	0	0	0	515	510	
2	0	0	0	0	522	508	
3	0	0	0	0	521	507	
4	0	0	0	0	520	505	
5	0	0	0	0	519	506	
6	0	0	0	0	519	501	
7	0	0	0	0	513	506	
8	0	0	0	0	510	507	
9	0	0	0	0	513	504	
10	0	0	0	0	511	501	
11	0	0	0	0	509	497	
12	0	0	0	0	511	491	
13	0	0	0	0	515	496	
14	0	0	0	0	519	500	
15	0	0	0	0	531	498	
0	0	0	0	0	525	503	
1	0	0	0	0	515	521	
2	0	0	0	0	507	527	
3	0	0	0	0	505	525	
4	0	0	0	0	482	520	
5	0	0	0	0	467	518	
6	0	0	0	0	476	511	
7	0	0	0	0	496	512	
8	0	0	0	0	504	508	
9	0	0	0	0	514	504	
10	0	0	0	0	524	503	
11	0	0	0	0	526	502	
12	0	0	0	0	525	500	
13	0	0	0	0	522	498	
14	0	0	0	0	519	504	
15	0	0	0	0	521	502	
0	0	0	0	0	513	492	
1	0	0	0	0	509	495	
2	0	0	0	0	508	501	
3	0	0	0	0	510	504	
4	0	0	0	0	506	506	
5	0	0	0	0	504	519	
6	0	0	0	0	518	520	
7	0	0	0	0	532	521	
8	0	0	0	0	538	516	
9	0	0	0	0	526	515	
10	0	0	0	0	511	516	
11	0	0	0	0	500	515	
12	0	0	0	0	494	510	
13	0	0	0	0	494	505	
14	0	0	0	0	495	501	
15	0	0	0	0	503	498	
0	0	0	0	0	515	504	
1	0	0	0	0	520	505	
2	0	0	0	0	533	505	
3	0	0	0	0	543	496	
4	0	0	0	0	537	488	
5	0	0	0	0	520	498	
6	0	0	0	0	495	505	
7	0	0	0	0	494	503	
8	0	0	0	0	487	508	
9	0	0	0	0	486	524	
10	0	0	0	0	479	528	
11	0	0	0	0	482	525	
12	0	0	0	0	504	519	
13	0	0	0	0	518	513	
14	0	0	0	0	521	511	
15	0	0	0	0	521	507	
0	0	0	0	0	524	505	
1	0	0	0	0	525	503	
2	0	0	0	0	526	502	
3	0	0	0	0	525	506	
4	0	0	0	0	519	506	
5	0	0	0	0	525	502	
6	0	0	0	0	546	502	
7	0	0	0	0	544	495	
8	0	0	0	0	528	486	
9	0	0	0	0	509	494	
10	0	0	0	0	495	499	
11	0	0	0	0	488	503	
12	0	0	0	0	471	506	
13	0	0	0	0	481	523	
14	0	0	0	0	499	524	
15	0	0	0	0	517	526	
0	0	0	0	0	531	527	
1	0	0	0	0	536	515	
2	0	0	0	0	525	516	
3	0	0	0	0	515	513	
4	0	0	0	0	499	507	
5	0	0	0	0	496	502	
6	0	0	0	0	497	501	
7	0	0	0	0	499	505	
8	0	0	0	0	501	504	
9	0	0	0	0	503	503	
10	0	0	0	0	510	502	
11	0	0	0	0	517	498	
12	0	0	0	0	518	491	
13	0	0	0	0	517	494	
14	0	0	0	0	514	501	
15	0	0	0	0	516	502	
0	0	0	0	0	513	505	
1	0	0	0	0	507	523	
2	0	0	0	0	512	526	
3	0	0	0	0	517	522	
4	0	0	0	0	515	518	
5	0	0	0	0	518	511	
6	0	0	0	0	520	508	
7	0	0	0	0	530	504	
8	0	0	0	0	534	503	
9	0	0	0	0	535	502	
10	0	0	0	0	528	504	
11	0	0	0	0	519	506	
12	0	0	0	0	508	512	
13	0	0	0	0	494	511	
14	0	0	0	0	481	506	
15	0	0	0	0	488	501	
0	0	0	0	0	488	497	
1	0	0	0	0	501	497	
2	0	0	0	0	504	497	
3	0	0	0	0	508	499	
4	0	0	0	0	505	503	
5	0	0	0	0	505	523	
6	0	0	0	0	510	527	
7	0	0	0	0	511	523	
8	0	0	0	0	516	519	
9	0	0	0	0	519	516	
10	0	0	0	0	522	514	
11	0	0	0	0	522	510	
12	0	0	0	0	522	506	
13	0	0	0	0	526	504	
14	0	0	0	0	522	501	
15	0	0	0	0	521	499	
0	0	0	0	0	518	499	
1	0	0	0	0	509	499	
2	0	0	0	0	513	500	
3	0	0	0	0	519	493	
4	0	0	0	0	516	492	
5	0	0	0	0	509	498	
6	0	0	0	0	508	504	
7	0	0	0	0	517	504	
8	0	0	0	0	515	509	
9	0	0	0	0	497	528	
10	0	0	0	0	491	533	
11	0	0	0	0	486	526	
12	0	0	0	0	484	522	
13	0	0	0	0	496	514	
14	0	0	0	0	504	509	
15	0	0	0	0	517	508	
0	0	0	0	0	528	507	
1	0	0	0	0	532	501	
2	0	0	0	0	531	499	
3	0	0	0	0	527	499	
4	0	0	0	0	519	502	
5	0	0	0	0	514	503	
6	0	0	0	0	514	501	
7	0	0	0	0	511	494	
8	0	0	0	0	500	495	
9	0	0	0	0	504	497	
10	0	0	0	0	514	499	
11	0	0	0	0	521	504	
12	0	0	0	0	523	507	
13	0	0	0	0	521	526	
14	0	0	0	0	514	527	
15	0	0	0	0	508	521	
0	0	0	0	0	497	517	
1	0	0	0	0	491	514	
2	0	0	0	0	486	511	
3	0	0	0	0	488	511	
4	0	0	0	0	504	505	
5	0	0	0	0	519	504	
6	0	0	0	0	522	503	
7	0	0	0	0	524	506	
8	0	0	0	0	526	504	
9	0	0	0	0	521	500	
10	0	0	0	0	521	501	
11	0	0	0	0	521	495	
12	0	0	0	0	516	491	
13	0	0	0	0	512	496	
14	0	0	0	0	507	501	
15	0	0	0	0	509	505	
0	0	0	0	0	505	508	
1	0	0	0	0	503	525	
2	0	0	0	0	506	527	
3	0	0	0	0	509	520	
4	0	0	0	0	512	518	
5	0	0	0	0	516	515	
6	0	0	0	0	520	510	
7	0	0	0	0	523	508	
8	0	0	0	0	526	504	
9	0	0	0	0	526	501	
10	0	0	0	0	554	499	
11	0	0	0	0	551	506	
12	0	0	0	0	539	510	
13	0	0	0	0	517	505	
14	0	0	0	0	480	505	
15	0	0	0	0	465	500	
0	0	0	0	0	455	493	
1	0	0	0	0	467	499	
2	0	0	0	0	487	500	
3	0	0	0	0	492	502	
4	0	0	0	0	497	508	
5	0	0	0	0	497	524	
6	0	0	0	0	509	526	
7	0	0	0	0	518	522	
8	0	0	0	0	522	518	
9	0	0	0	0	524	512	
10	0	0	0	0	529	509	
11	0	0	0	0	525	509	
12	0	0	0	0	529	507	
13	0	0	0	0	529	504	
14	0	0	0	0	526	502	
15	0	0	0	0	524	504	
0	0	0	0	0	523	502	
1	0	0	0	0	520	500	
2	0	0	0	0	528	498	
3	0	0	0	0	526	492	
4	0	0	0	0	523	487	
5	0	0	0	0	513	494	
6	0	0	0	0	511	499	
7	0	0	0	0	520	503	
8	0	0	0	0	520	508	
9	0	0	0	0	492	536	
10	0	0	0	0	467	541	
11	0	0	0	0	477	529	
12	0	0	0	0	483	519	
13	0	0	0	0	480	515	
14	0	0	0	0	493	509	
15	0	0	0	0	515	508	
0	0	0	0	0	520	508	
1	0	0	0	0	523	505	
2	0	0	0	0	520	503	
3	0	0	0	0	521	501	
4	0	0	0	0	520	504	
5	0	0	0	0	521	500	
6	0	0	0	0	520	500	
7	0	0	0	0	521	495	
8	0	0	0	0	519	486	
9	0	0	0	0	515	492	
10	0	0	0	0	513	501	
11	0	0	0	0	514	502	
12	0	0	0	0	511	508	
13	0	0	0	0	503	525	
14	0	0	0	0	505	526	
15	0	0	0	0	508	521	
0	0	0	0	0	518	519	
1	0	0	0	0	521	510	
2	0	0	0	0	522	511	
3	0	0	0	0	522	509	
4	0	0	0	0	520	504	
5	0	0	0	0	519	504	
6	0	0	0	0	520	501	
7	0	0	0	0	520	504	
8	0	0	0	0	512	509	
9	0	0	0	0	516	513	
10	0	0	0	0	530	508	
11	0	0	0	0	520	502	
12	0	0	0	0	496	494	
13	0	0	0	0	495	492	
14	0	0	0	0	489	499	
15	0	0	0	0	494	495	
0	0	0	0	0	494	507	
1	0	0	0	0	484	532	
2	0	0	0	0	496	528	
3	0	0	0	0	515	522	
4	0	0	0	0	520	519	
5	0	0	0	0	510	521	
6	0	0	0	0	508	517	
7	0	0	0	0	519	505	
8	0	0	0	0	519	504	
9	0	0	0	0	518	502	
10	0	0	0	0	522	499	
11	0	0	0	0	529	503	
12	0	0	0	0	525	503	
13	0	0	0	0	526	500	
14	0	0	0	0	524	500	
15	0	0	0	0	556	493	
0	0	0	0	0	551	487	
1	0	0	0	0	535	492	
2	0	0	0	0	517	501	
3	0	0	0	0	506	504	
4	0	0	0	0	485	512	
5	0	0	0	0	464	525	
6	0	0	0	0	471	527	
7	0	0	0	0	491	520	
8	0	0	0	0	484	518	
9	0	0	0	0	471	519	
10	0	0	0	0	472	511	
11	0	0	0	0	496	512	
12	0	0	0	0	536	503	
13	0	0	0	0	548	502	
14	0	0	0	0	531	503	
15	0	0	0	0	512	504	
0	0	0	0	0	510	511	
1	0	0	0	0	518	505	
2	0	0	0	0	509	504	
3	0	0	0	0	512	494	
4	0	0	0	0	505	496	
5	0	0	0	0	521	496	
6	0	0	0	0	544	497	
7	0	0	0	0	551	498	
8	0	0	0	0	536	499	
9	0	0	0	0	504	518	
10	0	0	0	0	498	524	
11	0	0	0	0	491	525	
12	0	0	0	0	489	519	
13	0	0	0	0	483	514	
14	0	0	0	0	469	514	
15	0	0	0	0	500	513	
0	0	0	0	0	528	518	
1	0	0	0	0	531	510	
2	0	0	0	0	522	504	
3	0	0	0	0	512	502	
4	0	0	0	0	511	504	
5	0	0	0	0	512	499	
6	0	0	0	0	530	498	
7	0	0	0	0	531	493	
8	0	0	0	0	519	489	
9	0	0	0	0	513	492	
10	0	0	0	0	505	499	
11	0	0	0	0	506	499	
12	0	0	0	0	499	508	
13	0	0	0	0	492	529	
14	0	0	0	0	501	531	
15	0	0	0	0	515	520	
0	0	0	0	0	521	518	
1	0	0	0	0	521	518	
2	0	0	0	0	520	513	
3	0	0	0	0	527	514	
4	0	0	0	0	530	510	
5	0	0	0	0	529	505	
6	0	0	0	0	527	500	
7	0	0	0	0	525	497	
8	0	0	0	0	519	500	
9	0	0	0	0	515	497	
10	0	0	0	0	512	501	
11	0	0	0	0	511	496	
12	0	0	0	0	508	495	
13	0	0	0	0	503	504	
14	0	0	0	0	501	505	
15	0	0	0	0	506	503	
0	0	0	0	0	496	506	
1	0	0	0	0	499	518	
2	0	0	0	0	503	520	
3	0	0	0	0	505	519	
4	0	0	0	0	521	509	
5	0	0	0	0	534	506	
6	0	0	0	0	524	512	
7	0	0	0	0	515	515	
8	0	0	0	0	487	519	
9	0	0	0	0	466	516	
10	0	0	0	0	475	507	
11	0	0	0	0	491	508	
12	0	0	0	0	504	503	
13	0	0	0	0	516	497	
14	0	0	0	0	529	497	
15	0	0	0	0	550	492	
0	0	0	0	0	545	492	
1	0	0	0	0	543	498	
2	0	0	0	0	541	504	
3	0	0	0	0	539	502	
4	0	0	0	0	528	503	
5	0	0	0	0	493	518	
6	0	0	0	0	470	521	
7	0	0	0	0	461	522	
8	0	0	0	0	472	520	
9	0	0	0	0	489	521	
10	0	0	0	0	500	516	
11	0	0	0	0	517	505	
12	0	0	0	0	517	508	
13	0	0	0	0	517	511	
14	0	0	0	0	522	503	
15	0	0	0	0	523	500	
0	0	0	0	0	521	502	
1	0	0	0	0	520	501	
2	0	0	0	0	523	501	
3	0	0	0	0	528	494	
4	0	0	0	0	522	492	
5	0	0	0	0	516	489	
6	0	0	0	0	512	496	
7	0	0	0	0	513	496	
8	0	0	0	0	500	507	
9	0	0	0	0	509	527	
10	0	0	0	0	520	531	
11	0	0	0	0	524	527	
12	0	0	0	0	519	531	
13	0	0	0	0	519	520	
14	0	0	0	0	510	509	
15	0	0	0	0	501	505	
0	0	0	0	0	503	507	
1	0	0	0	0	508	504	
2	0	0	0	0	511	499	
3	0	0	0	0	515	503	
4	0	0	0	0	535	503	
5	0	0	0	0	540	504	
6	0	0	0	0	528	502	
7	0	0	0	0	518	495	
8	0	0	0	0	509	489	
9	0	0	0	0	504	500	
10	0	0	0	0	495	500	
11	0	0	0	0	466	492	
12	0	0	0	0	457	504	
13	0	0	0	0	479	522	
14	0	0	0	0	495	530	
15	0	0	0	0	504	532	
0	0	0	0	0	504	524	
1	0	0	0	0	504	517	
2	0	0	0	0	515	516	
3	0	0	0	0	524	513	
4	0	0	0	0	526	506	
5	0	0	0	0	528	503	
6	0	0	0	0	534	497	
7	0	0	0	0	529	499	
8	0	0	0	0	521	502	
9	0	0	0	0	519	500	
10	0	0	0	0	521	501	
11	0	0	0	0	521	494	
12	0	0	0	0	519	489	
13	0	0	0	0	517	495	
14	0	0	0	0	511	502	
15	0	0	0	0	512	503	
0	0	0	0	0	509	510	
1	0	0	0	0	503	525	
2	0	0	0	0	507	526	
3	0	0	0	0	510	520	
4	0	0	0	0	512	516	
5	0	0	0	0	511	512	
6	0	0	0	0	516	506	
7	0	0	0	0	516	504	
8	0	0	0	0	518	503	
9	0	0	0	0	518	502	
10	0	0	0	0	516	501	
11	0	0	0	0	515	502	
12	0	0	0	0	512	499	
13	0	0	0	0	508	497	
14	0	0	0	0	510	496	
15	0	0	0	0	513	497	
0	0	0	0	0	508	493	
1	0	0	0	0	510	491	
2	0	0	0	0	505	488	
3	0	0	0	0	510	493	
4	0	0	0	0	507	524	
5	0	0	0	0	502	539	
6	0	0	0	0	505	530	
7	0	0	0	0	510	547	
8	0	0	0	0	511	549	
9	0	0	0	0	508	535	
10	0	0	0	0	510	510	
11	0	0	0	0	513	487	
12	0	0	0	0	514	480	
13	0	0	0	0	515	478	
14	0	0	0	0	515	472	
15	0	0	0	0	515	450	
0	0	0	0	0	513	431	
1	0	0	0	0	512	441	
2	0	0	0	0	513	502	
3	0	0	0	0	517	574	
4	0	0	0	0	513	612	
5	0	0	0	0	510	588	
6	0	0	0	0	508	549	
7	0	0	0	0	512	507	
8	0	0	0	0	508	481	
9	0	0	0	0	501	479	
10	0	0	0	0	504	489	
11	0	0	0	0	507	485	
12	0	0	0	0	510	475	
13	0	0	0	0	510	490	
14	0	0	0	0	514	522	
15	0	0	0	0	512	547	
0	0	0	0	0	516	539	
1	0	0	0	0	516	499	
2	0	0	0	0	514	448	
3	0	0	0	0	515	427	
4	0	0	0	0	517	409	
5	0	0	0	0	519	430	
6	0	0	0	0	517	483	
7	0	0	0	0	517	534	
8	0	0	0	0	514	589	
9	0	0	0	0	511	573	
10	0	0	0	0	514	515	
11	0	0	0	0	515	525	
12	0	0	0	0	509	595	
13	0	0	0	0	502	693	
14	0	0	0	0	505	648	
15	0	0	0	0	508	567	
0	0	0	0	0	514	552	
1	0	0	0	0	517	531	
2	0	0	0	0	521	484	
3	0	0	0	0	520	483	
4	0	0	0	0	519	455	
5	0	0	0	0	518	445	
6	0	0	0	0	513	448	
7	0	0	0	0	513	479	
8	0	0	0	0	513	537	
9	0	0	0	0	509	556	
10	0	0	0	0	510	549	
11	0	0	0	0	511	515	
12	0	0	0	0	508	477	
13	0	0	0	0	504	459	
14	0	0	0	0	504	459	
15	0	0	0	0	511	455	
0	0	0	0	0	509	470	
1	0	0	0	0	502	501	
2	0	0	0	0	504	512	
3	0	0	0	0	510	523	
4	0	0	0	0	514	511	
5	0	0	0	0	511	502	
6	0	0	0	0	512	508	
7	0	0	0	0	516	515	
8	0	0	0	0	517	495	
9	0	0	0	0	518	492	
10	0	0	0	0	515	486	
11	0	0	0	0	513	492	
12	0	0	0	0	512	502	
13	0	0	0	0	508	519	
14	0	0	0	0	509	521	
15	0	0	0	0	515	499	
0	0	0	0	0	511	489	
1	0	0	0	0	508	488	
2	0	0	0	0	505	497	
3	0	0	0	0	506	499	
4	0	0	0	0	503	508	
5	0	0	0	0	503	528	
6	0	0	0	0	504	526	
7	0	0	0	0	507	517	
8	0	0	0	0	513	509	
9	0	0	0	0	516	508	
10	0	0	0	0	520	508	
11	0	0	0	0	516	505	
12	0	0	0	0	513	501	
13	0	0	0	0	516	502	
14	0	0	0	0	516	497	
15	0	0	0	0	518	493	
0	0	0	0	0	512	496	
1	0	0	0	0	509	505	
2	0	0	0	0	510	523	
3	0	0	0	0	512	507	
4	0	0	0	0	512	494	
5	0	0	0	0	510	495	
6	0	0	0	0	510	508	
7	0	0	0	0	510	515	
8	0	0	0	0	503	510	
9	0	0	0	0	496	509	
10	0	0	0	0	499	501	
11	0	0	0	0	508	534	
12	0	0	0	0	511	527	
13	0	0	0	0	516	505	
14	0	0	0	0	518	524	
15	0	0	0	0	521	561	
0	0	0	0	0	524	560	
1	0	0	0	0	527	520	
2	0	0	0	0	525	483	
3	0	0	0	0	522	477	
4	0	0	0	0	518	484	
5	0	0	0	0	515	486	
6	0	0	0	0	515	480	
7	0	0	0	0	514	476	
8	0	0	0	0	508	484	
9	0	0	0	0	504	498	
10	0	0	0	0	503	506	
11	0	0	0	0	508	513	
12	0	0	0	0	504	530	
13	0	0	0	0	500	537	
14	0	0	0	0	501	526	
15	0	0	0	0	504	512	
0	0	0	0	0	510	504	
1	0	0	0	0	512	506	
2	0	0	0	0	515	504	
3	0	0	0	0	520	496	
4	0	0	0	0	520	492	
5	0	0	0	0	520	491	
6	0	0	0	0	518	488	
7	0	0	0	0	514	494	
8	0	0	0	0	515	495	
9	0	0	0	0	511	505	
10	0	0	0	0	510	522	
11	0	0	0	0	515	526	
12	0	0	0	0	514	565	
13	0	0	0	0	515	563	
14	0	0	0	0	512	516	
15	0	0	0	0	511	488	
0	0	0	0	0	505	489	
1	0	0	0	0	500	503	
2	0	0	0	0	508	508	
3	0	0	0	0	510	509	
4	0	0	0	0	512	508	
5	0	0	0	0	511	504	
6	0	0	0	0	513	505	
7	0	0	0	0	511	507	
8	0	0	0	0	513	505	
9	0	0	0	0	515	503	
10	0	0	0	0	517	502	
11	0	0	0	0	515	500	
12	0	0	0	0	515	503	
13	0	0	0	0	515	499	
14	0	0	0	0	513	498	
15	0	0	0	0	513	488	
0	0	0	0	0	511	487	
1	0	0	0	0	507	492	
2	0	0	0	0	503	502	
3	0	0	0	0	508	504	
4	0	0	0	0	506	507	
5	0	0	0	0	504	519	
6	0	0	0	0	506	536	
7	0	0	0	0	508	540	
8	0	0	0	0	514	520	
9	0	0	0	0	517	508	
10	0	0	0	0	518	504	
11	0	0	0	0	520	498	
12	0	0	0	0	522	496	
13	0	0	0	0	523	515	
14	0	0	0	0	516	529	
15	0	0	0	0	512	525	
0	0	0	0	0	510	518	
1	0	0	0	0	514	514	
2	0	0	0	0	512	506	
3	0	0	0	0	511	486	
4	0	0	0	0	511	483	
5	0	0	0	0	510	489	
6	0	0	0	0	508	496	
7	0	0	0	0	508	500	
8	0	0	0	0	505	513	
9	0	0	0	0	499	527	
10	0	0	0	0	504	520	
11	0	0	0	0	508	517	
12	0	0	0	0	513	513	
13	0	0	0	0	517	510	
14	0	0	0	0	518	507	
15	0	0	0	0	518	504	
0	0	0	0	0	513	505	
1	0	0	0	0	513	507	
2	0	0	0	0	516	505	
3	0	0	0	0	514	513	
4	0	0	0	0	514	507	
5	0	0	0	0	513	498	
6	0	0	0	0	515	498	
7	0	0	0	0	515	489	
8	0	0	0	0	512	487	
9	0	0	0	0	507	492	
10	0	0	0	0	508	500	
11	0	0	0	0	511	503	
12	0	0	0	0	504	515	
13	0	0	0	0	501	531	
14	0	0	0	0	505	529	
15	0	0	0	0	508	522	
0	0	0	0	0	514	517	
1	0	0	0	0	517	519	
2	0	0	0	0	518	526	
3	0	0	0	0	520	517	
4	0	0	0	0	520	504	
5	0	0	0	0	517	496	
6	0	0	0	0	519	493	
7	0	0	0	0	515	499	
8	0	0	0	0	511	502	
9	0	0	0	0	511	498	
10	0	0	0	0	512	496	
11	0	0	0	0	515	485	
12	0	0	0	0	514	482	
13	0	0	0	0	511	504	
14	0	0	0	0	507	529	
15	0	0	0	0	508	519	
0	0	0	0	0	505	516	
1	0	0	0	0	502	522	
2	0	0	0	0	508	519	
3	0	0	0	0	512	520	
4	0	0	0	0	511	517	
5	0	0	0	0	509	510	
6	0	0	0	0	512	506	
7	0	0	0	0	515	505	
8	0	0	0	0	516	502	
9	0	0	0	0	518	503	
10	0	0	0	0	516	501	
11	0	0	0	0	515	503	
12	0	0	0	0	513	500	
13	0	0	0	0	510	502	
14	0	0	0	0	509	498	
15	0	0	0	0	512	493	
0	0	0	0	0	510	495	
1	0	0	0	0	517	496	
2	0	0	0	0	512	505	
3	0	0	0	0	510	509	
4	0	0	0	0	502	519	
5	0	0	0	0	499	532	
6	0	0	0	0	504	534	
7	0	0	0	0	505	525	
8	0	0	0	0	509	519	
9	0	0	0	0	512	507	
10	0	0	0	0	514	501	
11	0	0	0	0	519	497	
12	0	0	0	0	518	495	
13	0	0	0	0	518	493	
14	0	0	0	0	517	499	
15	0	0	0	0	519	513	
0	0	0	0	0	515	519	
1	0	0	0	0	514	505	
2	0	0	0	0	513	501	
3	0	0	0	0	513	489	
4	0	0	0	0	516	485	
5	0	0	0	0	515	493	
6	0	0	0	0	511	499	
7	0	0	0	0	508	505	
8	0	0	0	0	506	520	
9	0	0	0	0	498	538	
10	0	0	0	0	500	536	
11	0	0	0	0	504	526	
12	0	0	0	0	508	524	
13	0	0	0	0	513	519	
14	0	0	0	0	519	500	
15	0	0	0	0	519	493	
0	0	0	0	0	519	490	
1	0	0	0	0	521	488	
2	0	0	0	0	520	484	
3	0	0	0	0	513	491	
4	0	0	0	0	510	496	
5	0	0	0	0	509	495	
6	0	0	0	0	510	530	
7	0	0	0	0	512	548	
8	0	0	0	0	510	525	
9	0	0	0	0	508	508	
10	0	0	0	0	509	505	
11	0	0	0	0	511	511	
12	0	0	0	0	505	511	
13	0	0	0	0	501	510	
14	0	0	0	0	509	502	
15	0	0	0	0	511	505	
0	0	0	0	0	516	522	
1	0	0	0	0	529	515	
2	0	0	0	0	535	517	
3	0	0	0	0	525	515	
4	0	0	0	0	516	500	
5	0	0	0	0	510	496	
6	0	0	0	0	509	499	
7	0	0	0	0	504	505	
8	0	0	0	0	494	506	
9	0	0	0	0	493	502	
10	0	0	0	0	498	496	
11	0	0	0	0	507	494	
12	0	0	0	0	511	495	
13	0	0	0	0	511	494	
14	0	0	0	0	513	497	
15	0	0	0	0	517	499	
0	0	0	0	0	509	504	
1	0	0	0	0	505	516	
2	0	0	0	0	511	517	
3	0	0	0	0	514	520	
4	0	0	0	0	509	522	
5	0	0	0	0	511	515	
6	0	0	0	0	516	516	
7	0	0	0	0	529	513	
8	0	0	0	0	533	513	
9	0	0	0	0	535	529	
10	0	0	0	0	551	510	
11	0	0	0	0	548	502	
12	0	0	0	0	524	498	
13	0	0	0	0	508	499	
14	0	0	0	0	497	501	
15	0	0	0	0	489	499	
0	0	0	0	0	479	498	
1	0	0	0	0	478	493	
2	0	0	0	0	479	498	
3	0	0	0	0	484	501	
4	0	0	0	0	486	507	
5	0	0	0	0	491	515	
6	0	0	0	0	504	518	
7	0	0	0	0	513	520	
8	0	0	0	0	518	515	
9	0	0	0	0	521	513	
10	0	0	0	0	525	527	
11	0	0	0	0	524	508	
12	0	0	0	0	526	502	
13	0	0	0	0	527	510	
14	0	0	0	0	529	506	
15	0	0	0	0	534	496	
0	0	0	0	0	530	489	
1	0	0	0	0	525	494	
2	0	0	0	0	523	535	
3	0	0	0	0	516	514	
4	0	0	0	0	505	498	
5	0	0	0	0	499	499	
6	0	0	0	0	496	498	
7	0	0	0	0	499	495	
8	0	0	0	0	495	505	
9	0	0	0	0	496	517	
10	0	0	0	0	513	516	
11	0	0	0	0	516	512	
12	0	0	0	0	514	514	
13	0	0	0	0	507	521	
14	0	0	0	0	500	520	
15	0	0	0	0	501	511	
0	0	0	0	0	505	506	
1	0	0	0	0	509	501	
2	0	0	0	0	514	499	
3	0	0	0	0	519	501	
4	0	0	0	0	520	499	
5	0	0	0	0	518	497	
6	0	0	0	0	518	495	
7	0	0	0	0	520	494	
8	0	0	0	0	512	499	
9	0	0	0	0	510	502	
10	0	0	0	0	508	510	
11	0	0	0	0	512	498	
12	0	0	0	0	505	503	
13	0	0	0	0	502	526	
14	0	0	0	0	506	523	
15	0	0	0	0	513	531	
0	0	0	0	0	518	520	
1	0	0	0	0	515	512	
2	0	0	0	0	519	501	
3	0	0	0	0	519	513	
4	0	0	0	0	520	526	
5	0	0	0	0	521	511	
6	0	0	0	0	513	496	
7	0	0	0	0	503	504	
8	0	0	0	0	499	502	
9	0	0	0	0	504	504	
10	0	0	0	0	513	498	
11	0	0	0	0	535	480	
12	0	0	0	0	550	478	
13	0	0	0	0	543	499	
14	0	0	0	0	532	526	
15	0	0	0	0	518	508	
0	0	0	0	0	503	508	
1	0	0	0	0	492	519	
2	0	0	0	0	490	522	
3	0	0	0	0	495	523	
4	0	0	0	0	499	520	
5	0	0	0	0	511	513	
6	0	0	0	0	540	504	
7	0	0	0	0	556	508	
8	0	0	0	0	537	509	
9	0	0	0	0	511	505	
10	0	0	0	0	488	505	
11	0	0	0	0	474	508	
12	0	0	0	0	467	507	
13	0	0	0	0	468	498	
14	0	0	0	0	476	494	
15	0	0	0	0	489	483	
0	0	0	0	0	496	512	
1	0	0	0	0	504	526	
2	0	0	0	0	507	511	
3	0	0	0	0	510	499	
4	0	0	0	0	510	495	
5	0	0	0	0	516	503	
6	0	0	0	0	502	492	
7	0	0	0	0	499	492	
8	0	0	0	0	518	497	
9	0	0	0	0	531	517	
10	0	0	0	0	536	541	
11	0	0	0	0	541	528	
12	0	0	0	0	540	498	
13	0	0	0	0	540	519	
14	0	0	0	0	536	520	
15	0	0	0	0	526	508	
0	0	0	0	0	515	514	
1	0	0	0	0	507	526	
2	0	0	0	0	505	502	
3	0	0	0	0	511	486	
4	0	0	0	0	505	486	
5	0	0	0	0	502	488	
6	0	0	0	0	500	486	
7	0	0	0	0	504	492	
8	0	0	0	0	498	538	
9	0	0	0	0	500	546	
10	0	0	0	0	505	530	
11	0	0	0	0	509	541	
12	0	0	0	0	514	525	
13	0	0	0	0	517	491	
14	0	0	0	0	520	497	
15	0	0	0	0	521	486	
0	0	0	0	0	521	474	
1	0	0	0	0	521	487	
2	0	0	0	0	520	478	
3	0	0	0	0	519	488	
4	0	0	0	0	514	553	
5	0	0	0	0	514	549	
6	0	0	0	0	509	538	
7	0	0	0	0	513	515	
8	0	0	0	0	511	498	
9	0	0	0	0	509	471	
10	0	0	0	0	506	486	
11	0	0	0	0	512	496	
12	0	0	0	0	503	495	
13	0	0	0	0	498	505	
14	0	0	0	0	504	507	
15	0	0	0	0	506	501	
0	0	0	0	0	510	505	
1	0	0	0	0	511	520	
2	0	0	0	0	512	514	
3	0	0	0	0	514	509	
4	0	0	0	0	511	495	
5	0	0	0	0	513	485	
6	0	0	0	0	515	493	
7	0	0	0	0	516	545	
8	0	0	0	0	518	589	
9	0	0	0	0	519	526	
10	0	0	0	0	517	500	
11	0	0	0	0	519	489	
12	0	0	0	0	513	490	
13	0	0	0	0	510	493	
14	0	0	0	0	507	495	
15	0	0	0	0	508	485	
0	0	0	0	0	503	489	
1	0	0	0	0	501	507	
2	0	0	0	0	505	512	
3	0	0	0	0	508	503	
4	0	0	0	0	514	521	
5	0	0	0	0	519	545	
6	0	0	0	0	517	543	
7	0	0	0	0	519	534	
8	0	0	0	0	514	509	
9	0	0	0	0	510	484	
10	0	0	0	0	510	494	
11	0	0	0	0	513	507	
12	0	0	0	0	515	518	
13	0	0	0	0	517	516	
14	0	0	0	0	520	504	
15	0	0	0	0	514	494	
0	0	0	0	0	506	491	
1	0	0	0	0	505	492	
2	0	0	0	0	505	500	
3	0	0	0	0	506	489	
4	0	0	0	0	496	488	
5	0	0	0	0	501	504	
6	0	0	0	0	507	506	
7	0	0	0	0	512	492	
8	0	0	0	0	516	482	
9	0	0	0	0	517	473	
10	0	0	0	0	513	469	
11	0	0	0	0	515	494	
12	0	0	0	0	516	534	
13	0	0	0	0	518	599	
14	0	0	0	0	514	632	
15	0	0	0	0	515	522	
0	0	0	0	0	515	474	
1	0	0	0	0	516	516	
2	0	0	0	0	519	532	
3	0	0	0	0	520	541	
4	0	0	0	0	514	507	
5	0	0	0	0	512	453	
6	0	0	0	0	509	454	
7	0	0	0	0	507	482	
8	0	0	0	0	499	521	
9	0	0	0	0	502	521	
10	0	0	0	0	507	516	
11	0	0	0	0	510	537	
12	0	0	0	0	514	522	
13	0	0	0	0	514	491	
14	0	0	0	0	515	484	
15	0	0	0	0	518	491	
0	0	0	0	0	512	491	
1	0	0	0	0	514	495	
2	0	0	0	0	518	508	
3	0	0	0	0	516	537	
4	0	0	0	0	516	551	
5	0	0	0	0	513	540	
6	0	0	0	0	508	516	
7	0	0	0	0	510	500	
8	0	0	0	0	512	483	
9	0	0	0	0	514	459	
10	0	0	0	0	511	478	
11	0	0	0	0	512	506	
12	0	0	0	0	501	513	
13	0	0	0	0	500	524	
14	0	0	0	0	506	529	
15	0	0	0	0	509	512	
0	0	0	0	0	514	497	
1	0	0	0	0	519	495	
2	0	0	0	0	521	501	
3	0	0	0	0	519	518	
4	0	0	0	0	513	517	
5	0	0	0	0	512	495	
6	0	0	0	0	511	483	
7	0	0	0	0	512	449	
8	0	0	0	0	513	460	
9	0	0	0	0	514	552	
10	0	0	0	0	513	555	
11	0	0	0	0	514	477	
12	0	0	0	0	512	461	
13	0	0	0	0	508	635	
14	0	0	0	0	507	616	
15	0	0	0	0	511	494	
0	0	0	0	0	502	520	
1	0	0	0	0	503	487	
2	0	0	0	0	509	453	
3	0	0	0	0	513	446	
4	0	0	0	0	519	426	
5	0	0	0	0	515	405	
6	0	0	0	0	514	508	
7	0	0	0	0	511	560	
8	0	0	0	0	509	642	
9	0	0	0	0	518	543	
10	0	0	0	0	518	431	
11	0	0	0	0	517	442	
12	0	0	0	0	518	471	
13	0	0	0	0	508	498	
14	0	0	0	0	507	531	
15	0	0	0	0	511	653	
0	0	0	0	0	514	655	
1	0	0	0	0	513	558	
2	0	0	0	0	512	438	
3	0	0	0	0	509	404	
4	0	0	0	0	504	403	
5	0	0	0	0	503	454	
6	0	0	0	0	513	505	
7	0	0	0	0	512	533	
8	0	0	0	0	512	582	
9	0	0	0	0	508	604	
10	0	0	0	0	515	568	
11	0	0	0	0	519	474	
12	0	0	0	0	515	519	
13	0	0	0	0	510	576	
14	0	0	0	0	512	485	
15	0	0	0	0	513	467	
0	0	0	0	0	514	341	
1	0	0	0	0	515	427	
2	0	0	0	0	512	574	
3	0	0	0	0	514	494	
4	0	0	0	0	511	534	
5	0	0	0	0	505	610	
6	0	0	0	0	499	516	
7	0	0	0	0	507	359	
8	0	0	0	0	504	398	
9	0	0	0	0	504	550	
10	0	0	0	0	508	449	
11	0	0	0	0	514	557	
12	0	0	0	0	527	664	
13	0	0	0	0	532	647	
14	0	0	0	0	528	488	
15	0	0	0	0	516	496	
0	0	0	0	0	515	530	
1	0	0	0	0	512	529	
2	0	0	0	0	511	528	
