# OpenSignals Text File Format. Version 1
# {"88:6B:0F:F0:D6:9F": {"position": 0, "device": "bitalino_rev", "device name": "88:6B:0F:F0:D6:9F", "device connection": "BTH88:6B:0F:F0:D6:9F", "sampling rate": 1000, "resolution": [4, 1, 1, 1, 1, 10, 10], "firmware version": 1282, "comments": "", "keywords": "", "mode": 0, "sync interval": 2, "date": "2025-10-22", "time": "14:1:38.163", "channels": [3, 4], "sensor": ["EMGBITREV", "EMGBITREV"], "label": ["A3", "A4"], "column": ["nSeq", "I1", "I2", "O1", "O2", "A3", "A4"], "special": [{}, {}], "digital IO": [0, 0, 1, 1], "convertedValues": 1}}
# EndOfHeader
0.0	0.0	0.0	0.0	0.0	-0.013	0.089	
1.0	0.0	0.0	0.0	0.0	0.0	0.118	
2.0	0.0	0.0	0.0	0.0	-0.019	0.0	
3.0	0.0	0.0	0.0	0.0	-0.026	-0.214	
4.0	0.0	0.0	0.0	0.0	0.01	-0.099	
5.0	0.0	0.0	0.0	0.0	0.016	-0.019	
6.0	0.0	0.0	0.0	0.0	0.01	0.038	
7.0	0.0	0.0	0.0	0.0	-0.003	0.019	
8.0	0.0	0.0	0.0	0.0	-0.006	0.006	
9.0	0.0	0.0	0.0	0.0	0.0	-0.016	
10.0	0.0	0.0	0.0	0.0	-0.022	-0.057	
11.0	0.0	0.0	0.0	0.0	-0.01	-0.073	
12.0	0.0	0.0	0.0	0.0	0.01	0.029	
13.0	0.0	0.0	0.0	0.0	0.01	0.166	
14.0	0.0	0.0	0.0	0.0	-0.013	0.054	
15.0	0.0	0.0	0.0	0.0	-0.032	-0.144	
0.0	0.0	0.0	0.0	0.0	-0.003	-0.019	
1.0	0.0	0.0	0.0	0.0	0.0	0.038	
2.0	0.0	0.0	0.0	0.0	0.003	0.038	
3.0	0.0	0.0	0.0	0.0	-0.003	-0.109	
4.0	0.0	0.0	0.0	0.0	-0.01	-0.125	
5.0	0.0	0.0	0.0	0.0	0.026	-0.102	
6.0	0.0	0.0	0.0	0.0	0.003	-0.204	
7.0	0.0	0.0	0.0	0.0	-0.003	-0.045	
8.0	0.0	0.0	0.0	0.0	0.003	0.08	
9.0	0.0	0.0	0.0	0.0	0.003	0.112	
10.0	0.0	0.0	0.0	0.0	0.006	0.172	
11.0	0.0	0.0	0.0	0.0	-0.013	0.128	
12.0	0.0	0.0	0.0	0.0	-0.026	-0.137	
13.0	0.0	0.0	0.0	0.0	-0.016	-0.268	
14.0	0.0	0.0	0.0	0.0	0.019	-0.147	
15.0	0.0	0.0	0.0	0.0	0.045	0.089	
0.0	0.0	0.0	0.0	0.0	0.022	0.224	
1.0	0.0	0.0	0.0	0.0	-0.003	0.118	
2.0	0.0	0.0	0.0	0.0	-0.016	-0.224	
3.0	0.0	0.0	0.0	0.0	-0.013	-0.236	
4.0	0.0	0.0	0.0	0.0	-0.016	-0.144	
5.0	0.0	0.0	0.0	0.0	0.01	0.026	
6.0	0.0	0.0	0.0	0.0	0.01	0.07	
7.0	0.0	0.0	0.0	0.0	0.003	0.073	
8.0	0.0	0.0	0.0	0.0	-0.022	-0.022	
9.0	0.0	0.0	0.0	0.0	-0.006	0.01	
10.0	0.0	0.0	0.0	0.0	-0.003	0.099	
11.0	0.0	0.0	0.0	0.0	0.003	0.169	
12.0	0.0	0.0	0.0	0.0	0.0	0.115	
13.0	0.0	0.0	0.0	0.0	-0.019	-0.093	
14.0	0.0	0.0	0.0	0.0	-0.013	-0.287	
15.0	0.0	0.0	0.0	0.0	0.006	0.029	
0.0	0.0	0.0	0.0	0.0	-0.003	0.086	
1.0	0.0	0.0	0.0	0.0	0.0	-0.182	
2.0	0.0	0.0	0.0	0.0	0.0	-0.102	
3.0	0.0	0.0	0.0	0.0	-0.006	-0.016	
4.0	0.0	0.0	0.0	0.0	0.0	-0.003	
5.0	0.0	0.0	0.0	0.0	-0.013	0.01	
6.0	0.0	0.0	0.0	0.0	-0.022	0.016	
7.0	0.0	0.0	0.0	0.0	-0.013	-0.029	
8.0	0.0	0.0	0.0	0.0	0.022	0.003	
9.0	0.0	0.0	0.0	0.0	0.048	-0.042	
10.0	0.0	0.0	0.0	0.0	0.042	-0.01	
11.0	0.0	0.0	0.0	0.0	0.013	0.07	
12.0	0.0	0.0	0.0	0.0	-0.01	0.057	
13.0	0.0	0.0	0.0	0.0	-0.016	-0.038	
14.0	0.0	0.0	0.0	0.0	-0.019	-0.026	
15.0	0.0	0.0	0.0	0.0	-0.029	-0.185	
0.0	0.0	0.0	0.0	0.0	0.01	-0.064	
1.0	0.0	0.0	0.0	0.0	0.013	0.083	
2.0	0.0	0.0	0.0	0.0	0.003	0.134	
3.0	0.0	0.0	0.0	0.0	0.006	0.169	
4.0	0.0	0.0	0.0	0.0	-0.006	0.042	
5.0	0.0	0.0	0.0	0.0	-0.003	-0.064	
6.0	0.0	0.0	0.0	0.0	-0.038	-0.291	
7.0	0.0	0.0	0.0	0.0	-0.013	-0.144	
8.0	0.0	0.0	0.0	0.0	-0.029	-0.201	
9.0	0.0	0.0	0.0	0.0	-0.006	-0.089	
10.0	0.0	0.0	0.0	0.0	0.022	0.048	
11.0	0.0	0.0	0.0	0.0	0.026	0.096	
12.0	0.0	0.0	0.0	0.0	-0.016	0.064	
13.0	0.0	0.0	0.0	0.0	-0.006	0.064	
14.0	0.0	0.0	0.0	0.0	0.01	0.096	
15.0	0.0	0.0	0.0	0.0	-0.003	0.013	
0.0	0.0	0.0	0.0	0.0	-0.013	-0.153	
1.0	0.0	0.0	0.0	0.0	0.022	0.026	
2.0	0.0	0.0	0.0	0.0	0.022	0.109	
3.0	0.0	0.0	0.0	0.0	0.006	0.01	
4.0	0.0	0.0	0.0	0.0	-0.026	-0.169	
5.0	0.0	0.0	0.0	0.0	-0.019	-0.157	
6.0	0.0	0.0	0.0	0.0	0.003	0.003	
7.0	0.0	0.0	0.0	0.0	0.01	0.214	
8.0	0.0	0.0	0.0	0.0	0.022	0.361	
9.0	0.0	0.0	0.0	0.0	-0.029	0.249	
10.0	0.0	0.0	0.0	0.0	-0.086	-0.335	
11.0	0.0	0.0	0.0	0.0	-0.016	-0.38	
12.0	0.0	0.0	0.0	0.0	0.022	-0.31	
13.0	0.0	0.0	0.0	0.0	0.026	-0.137	
14.0	0.0	0.0	0.0	0.0	0.022	-0.038	
15.0	0.0	0.0	0.0	0.0	0.019	-0.083	
0.0	0.0	0.0	0.0	0.0	0.045	-0.019	
1.0	0.0	0.0	0.0	0.0	0.029	0.089	
2.0	0.0	0.0	0.0	0.0	0.016	0.15	
3.0	0.0	0.0	0.0	0.0	-0.01	0.102	
4.0	0.0	0.0	0.0	0.0	-0.016	-0.08	
5.0	0.0	0.0	0.0	0.0	-0.016	-0.038	
6.0	0.0	0.0	0.0	0.0	-0.019	-0.01	
7.0	0.0	0.0	0.0	0.0	0.0	0.07	
8.0	0.0	0.0	0.0	0.0	-0.003	0.042	
9.0	0.0	0.0	0.0	0.0	-0.029	-0.102	
10.0	0.0	0.0	0.0	0.0	-0.016	0.006	
11.0	0.0	0.0	0.0	0.0	0.0	0.026	
12.0	0.0	0.0	0.0	0.0	0.0	0.013	
13.0	0.0	0.0	0.0	0.0	0.0	0.01	
14.0	0.0	0.0	0.0	0.0	0.003	0.016	
15.0	0.0	0.0	0.0	0.0	0.0	0.022	
0.0	0.0	0.0	0.0	0.0	-0.003	-0.003	
1.0	0.0	0.0	0.0	0.0	-0.006	0.032	
2.0	0.0	0.0	0.0	0.0	0.0	0.131	
3.0	0.0	0.0	0.0	0.0	-0.022	0.172	
4.0	0.0	0.0	0.0	0.0	-0.016	0.192	
5.0	0.0	0.0	0.0	0.0	-0.022	-0.038	
6.0	0.0	0.0	0.0	0.0	-0.01	-0.393	
7.0	0.0	0.0	0.0	0.0	0.01	-0.463	
8.0	0.0	0.0	0.0	0.0	0.032	-0.348	
9.0	0.0	0.0	0.0	0.0	0.042	-0.057	
10.0	0.0	0.0	0.0	0.0	0.01	0.048	
11.0	0.0	0.0	0.0	0.0	-0.01	0.054	
12.0	0.0	0.0	0.0	0.0	0.0	0.035	
13.0	0.0	0.0	0.0	0.0	0.006	0.042	
14.0	0.0	0.0	0.0	0.0	0.0	0.141	
15.0	0.0	0.0	0.0	0.0	-0.003	0.093	
0.0	0.0	0.0	0.0	0.0	-0.022	0.022	
1.0	0.0	0.0	0.0	0.0	-0.035	-0.112	
2.0	0.0	0.0	0.0	0.0	0.003	-0.029	
3.0	0.0	0.0	0.0	0.0	0.013	0.032	
4.0	0.0	0.0	0.0	0.0	-0.016	0.096	
5.0	0.0	0.0	0.0	0.0	0.01	0.022	
6.0	0.0	0.0	0.0	0.0	0.038	0.038	
7.0	0.0	0.0	0.0	0.0	0.042	-0.051	
8.0	0.0	0.0	0.0	0.0	0.01	-0.125	
9.0	0.0	0.0	0.0	0.0	0.0	0.016	
10.0	0.0	0.0	0.0	0.0	-0.022	0.029	
11.0	0.0	0.0	0.0	0.0	-0.006	-0.003	
12.0	0.0	0.0	0.0	0.0	-0.013	-0.131	
13.0	0.0	0.0	0.0	0.0	-0.022	-0.268	
14.0	0.0	0.0	0.0	0.0	-0.013	-0.115	
15.0	0.0	0.0	0.0	0.0	0.003	0.019	
0.0	0.0	0.0	0.0	0.0	0.003	0.096	
1.0	0.0	0.0	0.0	0.0	-0.006	0.07	
2.0	0.0	0.0	0.0	0.0	-0.013	0.057	
3.0	0.0	0.0	0.0	0.0	0.0	0.067	
4.0	0.0	0.0	0.0	0.0	-0.006	-0.045	
5.0	0.0	0.0	0.0	0.0	0.0	-0.026	
6.0	0.0	0.0	0.0	0.0	0.01	0.093	
7.0	0.0	0.0	0.0	0.0	0.003	-0.035	
8.0	0.0	0.0	0.0	0.0	-0.013	-0.089	
9.0	0.0	0.0	0.0	0.0	-0.019	-0.026	
10.0	0.0	0.0	0.0	0.0	-0.006	0.022	
11.0	0.0	0.0	0.0	0.0	0.003	0.022	
12.0	0.0	0.0	0.0	0.0	-0.003	-0.054	
13.0	0.0	0.0	0.0	0.0	0.0	-0.051	
14.0	0.0	0.0	0.0	0.0	0.006	0.032	
15.0	0.0	0.0	0.0	0.0	0.0	-0.003	
0.0	0.0	0.0	0.0	0.0	-0.026	-0.064	
1.0	0.0	0.0	0.0	0.0	-0.013	0.077	
2.0	0.0	0.0	0.0	0.0	0.01	0.121	
3.0	0.0	0.0	0.0	0.0	-0.003	-0.042	
4.0	0.0	0.0	0.0	0.0	0.029	-0.121	
5.0	0.0	0.0	0.0	0.0	0.029	-0.086	
6.0	0.0	0.0	0.0	0.0	0.013	-0.042	
7.0	0.0	0.0	0.0	0.0	0.0	0.003	
8.0	0.0	0.0	0.0	0.0	-0.029	-0.035	
9.0	0.0	0.0	0.0	0.0	-0.016	-0.093	
10.0	0.0	0.0	0.0	0.0	-0.003	0.022	
11.0	0.0	0.0	0.0	0.0	-0.013	0.169	
12.0	0.0	0.0	0.0	0.0	-0.026	0.022	
13.0	0.0	0.0	0.0	0.0	-0.038	-0.179	
14.0	0.0	0.0	0.0	0.0	-0.006	-0.01	
15.0	0.0	0.0	0.0	0.0	0.019	-0.08	
0.0	0.0	0.0	0.0	0.0	0.022	-0.147	
1.0	0.0	0.0	0.0	0.0	0.032	-0.096	
2.0	0.0	0.0	0.0	0.0	0.029	0.096	
3.0	0.0	0.0	0.0	0.0	0.022	0.188	
4.0	0.0	0.0	0.0	0.0	-0.016	0.051	
5.0	0.0	0.0	0.0	0.0	-0.032	-0.042	
6.0	0.0	0.0	0.0	0.0	0.022	-0.096	
7.0	0.0	0.0	0.0	0.0	0.013	-0.029	
8.0	0.0	0.0	0.0	0.0	0.0	-0.026	
9.0	0.0	0.0	0.0	0.0	0.01	-0.051	
10.0	0.0	0.0	0.0	0.0	0.026	0.089	
11.0	0.0	0.0	0.0	0.0	-0.003	0.179	
12.0	0.0	0.0	0.0	0.0	-0.064	-0.176	
13.0	0.0	0.0	0.0	0.0	-0.08	-0.348	
14.0	0.0	0.0	0.0	0.0	-0.003	-0.144	
15.0	0.0	0.0	0.0	0.0	0.035	0.051	
0.0	0.0	0.0	0.0	0.0	0.026	0.099	
1.0	0.0	0.0	0.0	0.0	0.013	0.109	
2.0	0.0	0.0	0.0	0.0	0.003	0.128	
3.0	0.0	0.0	0.0	0.0	-0.006	0.019	
4.0	0.0	0.0	0.0	0.0	-0.016	-0.013	
5.0	0.0	0.0	0.0	0.0	0.003	0.0	
6.0	0.0	0.0	0.0	0.0	0.0	0.0	
7.0	0.0	0.0	0.0	0.0	-0.006	-0.08	
8.0	0.0	0.0	0.0	0.0	0.032	-0.006	
9.0	0.0	0.0	0.0	0.0	0.019	0.179	
10.0	0.0	0.0	0.0	0.0	-0.026	0.099	
11.0	0.0	0.0	0.0	0.0	-0.064	-0.201	
12.0	0.0	0.0	0.0	0.0	-0.019	-0.224	
13.0	0.0	0.0	0.0	0.0	0.019	-0.093	
14.0	0.0	0.0	0.0	0.0	0.022	0.064	
15.0	0.0	0.0	0.0	0.0	-0.029	-0.064	
0.0	0.0	0.0	0.0	0.0	-0.051	-0.188	
1.0	0.0	0.0	0.0	0.0	-0.035	-0.23	
2.0	0.0	0.0	0.0	0.0	0.013	0.121	
3.0	0.0	0.0	0.0	0.0	0.061	0.227	
4.0	0.0	0.0	0.0	0.0	0.0	0.08	
5.0	0.0	0.0	0.0	0.0	0.013	-0.051	
6.0	0.0	0.0	0.0	0.0	0.045	-0.134	
7.0	0.0	0.0	0.0	0.0	0.038	-0.08	
8.0	0.0	0.0	0.0	0.0	-0.013	-0.176	
9.0	0.0	0.0	0.0	0.0	0.003	-0.032	
10.0	0.0	0.0	0.0	0.0	0.003	0.061	
11.0	0.0	0.0	0.0	0.0	-0.006	0.07	
12.0	0.0	0.0	0.0	0.0	0.0	0.112	
13.0	0.0	0.0	0.0	0.0	-0.016	0.073	
14.0	0.0	0.0	0.0	0.0	-0.013	0.057	
15.0	0.0	0.0	0.0	0.0	-0.026	-0.042	
0.0	0.0	0.0	0.0	0.0	-0.013	-0.051	
1.0	0.0	0.0	0.0	0.0	0.006	-0.073	
2.0	0.0	0.0	0.0	0.0	0.0	0.016	
3.0	0.0	0.0	0.0	0.0	-0.003	0.01	
4.0	0.0	0.0	0.0	0.0	0.0	-0.01	
5.0	0.0	0.0	0.0	0.0	-0.006	-0.035	
6.0	0.0	0.0	0.0	0.0	-0.019	-0.013	
7.0	0.0	0.0	0.0	0.0	-0.003	-0.003	
8.0	0.0	0.0	0.0	0.0	-0.006	-0.083	
9.0	0.0	0.0	0.0	0.0	0.01	0.0	
10.0	0.0	0.0	0.0	0.0	0.003	0.07	
11.0	0.0	0.0	0.0	0.0	-0.016	0.125	
12.0	0.0	0.0	0.0	0.0	0.013	0.051	
13.0	0.0	0.0	0.0	0.0	0.029	0.042	
14.0	0.0	0.0	0.0	0.0	0.013	-0.01	
15.0	0.0	0.0	0.0	0.0	0.003	-0.057	
0.0	0.0	0.0	0.0	0.0	-0.003	0.01	
1.0	0.0	0.0	0.0	0.0	-0.022	-0.073	
2.0	0.0	0.0	0.0	0.0	-0.026	-0.064	
3.0	0.0	0.0	0.0	0.0	-0.029	-0.121	
4.0	0.0	0.0	0.0	0.0	-0.016	-0.089	
5.0	0.0	0.0	0.0	0.0	-0.013	-0.208	
6.0	0.0	0.0	0.0	0.0	-0.013	-0.236	
7.0	0.0	0.0	0.0	0.0	0.0	-0.013	
8.0	0.0	0.0	0.0	0.0	-0.003	0.08	
9.0	0.0	0.0	0.0	0.0	0.006	0.093	
10.0	0.0	0.0	0.0	0.0	0.01	0.057	
11.0	0.0	0.0	0.0	0.0	0.006	-0.013	
12.0	0.0	0.0	0.0	0.0	0.026	-0.026	
13.0	0.0	0.0	0.0	0.0	0.035	0.089	
14.0	0.0	0.0	0.0	0.0	0.003	0.042	
15.0	0.0	0.0	0.0	0.0	-0.019	-0.086	
0.0	0.0	0.0	0.0	0.0	-0.016	0.019	
1.0	0.0	0.0	0.0	0.0	-0.003	0.134	
2.0	0.0	0.0	0.0	0.0	-0.003	0.089	
3.0	0.0	0.0	0.0	0.0	0.026	-0.035	
4.0	0.0	0.0	0.0	0.0	0.035	-0.093	
5.0	0.0	0.0	0.0	0.0	0.013	-0.15	
6.0	0.0	0.0	0.0	0.0	0.0	-0.125	
7.0	0.0	0.0	0.0	0.0	-0.035	-0.109	
8.0	0.0	0.0	0.0	0.0	-0.026	-0.026	
9.0	0.0	0.0	0.0	0.0	-0.003	0.003	
10.0	0.0	0.0	0.0	0.0	-0.022	-0.016	
11.0	0.0	0.0	0.0	0.0	-0.003	0.0	
12.0	0.0	0.0	0.0	0.0	-0.003	0.07	
13.0	0.0	0.0	0.0	0.0	0.01	0.073	
14.0	0.0	0.0	0.0	0.0	0.013	-0.003	
15.0	0.0	0.0	0.0	0.0	0.013	0.016	
0.0	0.0	0.0	0.0	0.0	-0.016	-0.013	
1.0	0.0	0.0	0.0	0.0	-0.016	-0.057	
2.0	0.0	0.0	0.0	0.0	-0.006	-0.032	
3.0	0.0	0.0	0.0	0.0	0.006	0.003	
4.0	0.0	0.0	0.0	0.0	0.013	0.045	
5.0	0.0	0.0	0.0	0.0	0.003	0.067	
6.0	0.0	0.0	0.0	0.0	-0.01	0.022	
7.0	0.0	0.0	0.0	0.0	-0.006	-0.032	
8.0	0.0	0.0	0.0	0.0	-0.016	-0.054	
9.0	0.0	0.0	0.0	0.0	-0.013	-0.035	
10.0	0.0	0.0	0.0	0.0	-0.022	0.112	
11.0	0.0	0.0	0.0	0.0	-0.038	-0.038	
12.0	0.0	0.0	0.0	0.0	0.029	0.131	
13.0	0.0	0.0	0.0	0.0	0.01	0.051	
14.0	0.0	0.0	0.0	0.0	-0.013	-0.141	
15.0	0.0	0.0	0.0	0.0	0.01	-0.412	
0.0	0.0	0.0	0.0	0.0	0.003	-0.287	
1.0	0.0	0.0	0.0	0.0	0.0	0.0	
2.0	0.0	0.0	0.0	0.0	-0.019	0.038	
3.0	0.0	0.0	0.0	0.0	0.013	0.067	
4.0	0.0	0.0	0.0	0.0	0.01	0.061	
5.0	0.0	0.0	0.0	0.0	0.006	-0.093	
6.0	0.0	0.0	0.0	0.0	0.013	-0.013	
7.0	0.0	0.0	0.0	0.0	0.022	0.042	
8.0	0.0	0.0	0.0	0.0	-0.003	0.045	
9.0	0.0	0.0	0.0	0.0	-0.013	0.035	
10.0	0.0	0.0	0.0	0.0	-0.022	-0.013	
11.0	0.0	0.0	0.0	0.0	-0.01	-0.006	
12.0	0.0	0.0	0.0	0.0	0.0	-0.003	
13.0	0.0	0.0	0.0	0.0	0.016	0.026	
14.0	0.0	0.0	0.0	0.0	0.006	0.112	
15.0	0.0	0.0	0.0	0.0	-0.019	0.224	
0.0	0.0	0.0	0.0	0.0	-0.054	0.141	
1.0	0.0	0.0	0.0	0.0	-0.051	-0.038	
2.0	0.0	0.0	0.0	0.0	-0.026	-0.268	
3.0	0.0	0.0	0.0	0.0	0.013	-0.377	
4.0	0.0	0.0	0.0	0.0	0.061	-0.227	
5.0	0.0	0.0	0.0	0.0	0.048	-0.006	
6.0	0.0	0.0	0.0	0.0	0.003	0.01	
7.0	0.0	0.0	0.0	0.0	0.003	0.07	
8.0	0.0	0.0	0.0	0.0	0.003	0.019	
9.0	0.0	0.0	0.0	0.0	0.019	0.026	
10.0	0.0	0.0	0.0	0.0	0.006	0.112	
11.0	0.0	0.0	0.0	0.0	-0.026	0.064	
12.0	0.0	0.0	0.0	0.0	-0.032	-0.013	
13.0	0.0	0.0	0.0	0.0	-0.013	-0.042	
14.0	0.0	0.0	0.0	0.0	-0.01	-0.166	
15.0	0.0	0.0	0.0	0.0	0.016	0.029	
0.0	0.0	0.0	0.0	0.0	-0.006	0.032	
1.0	0.0	0.0	0.0	0.0	-0.006	0.042	
2.0	0.0	0.0	0.0	0.0	-0.003	0.016	
3.0	0.0	0.0	0.0	0.0	-0.016	-0.131	
4.0	0.0	0.0	0.0	0.0	-0.013	-0.125	
5.0	0.0	0.0	0.0	0.0	0.0	-0.013	
6.0	0.0	0.0	0.0	0.0	-0.01	0.022	
7.0	0.0	0.0	0.0	0.0	-0.029	0.067	
8.0	0.0	0.0	0.0	0.0	0.01	0.029	
9.0	0.0	0.0	0.0	0.0	0.038	-0.006	
10.0	0.0	0.0	0.0	0.0	0.019	0.01	
11.0	0.0	0.0	0.0	0.0	0.016	0.01	
12.0	0.0	0.0	0.0	0.0	-0.006	-0.073	
13.0	0.0	0.0	0.0	0.0	0.0	0.118	
14.0	0.0	0.0	0.0	0.0	-0.003	0.038	
15.0	0.0	0.0	0.0	0.0	-0.01	0.051	
0.0	0.0	0.0	0.0	0.0	0.006	0.105	
1.0	0.0	0.0	0.0	0.0	0.016	-0.086	
2.0	0.0	0.0	0.0	0.0	-0.01	-0.281	
3.0	0.0	0.0	0.0	0.0	-0.006	-0.233	
4.0	0.0	0.0	0.0	0.0	-0.013	-0.166	
5.0	0.0	0.0	0.0	0.0	0.0	0.042	
6.0	0.0	0.0	0.0	0.0	0.01	0.179	
7.0	0.0	0.0	0.0	0.0	-0.01	0.013	
8.0	0.0	0.0	0.0	0.0	-0.013	-0.013	
9.0	0.0	0.0	0.0	0.0	-0.006	0.045	
10.0	0.0	0.0	0.0	0.0	-0.006	0.086	
11.0	0.0	0.0	0.0	0.0	0.003	0.112	
12.0	0.0	0.0	0.0	0.0	-0.01	-0.035	
13.0	0.0	0.0	0.0	0.0	-0.042	-0.297	
14.0	0.0	0.0	0.0	0.0	-0.038	-0.227	
15.0	0.0	0.0	0.0	0.0	0.026	0.029	
0.0	0.0	0.0	0.0	0.0	-0.022	-0.022	
1.0	0.0	0.0	0.0	0.0	-0.003	-0.125	
2.0	0.0	0.0	0.0	0.0	0.042	-0.064	
3.0	0.0	0.0	0.0	0.0	0.029	-0.038	
4.0	0.0	0.0	0.0	0.0	0.035	0.105	
5.0	0.0	0.0	0.0	0.0	0.0	0.099	
6.0	0.0	0.0	0.0	0.0	-0.013	0.029	
7.0	0.0	0.0	0.0	0.0	-0.01	-0.016	
8.0	0.0	0.0	0.0	0.0	-0.006	0.054	
9.0	0.0	0.0	0.0	0.0	0.019	0.102	
10.0	0.0	0.0	0.0	0.0	-0.01	0.093	
11.0	0.0	0.0	0.0	0.0	-0.035	-0.067	
12.0	0.0	0.0	0.0	0.0	0.006	0.054	
13.0	0.0	0.0	0.0	0.0	0.013	-0.026	
14.0	0.0	0.0	0.0	0.0	-0.003	-0.192	
15.0	0.0	0.0	0.0	0.0	-0.013	-0.144	
0.0	0.0	0.0	0.0	0.0	0.003	-0.048	
1.0	0.0	0.0	0.0	0.0	0.013	0.051	
2.0	0.0	0.0	0.0	0.0	0.0	0.035	
3.0	0.0	0.0	0.0	0.0	-0.013	0.029	
4.0	0.0	0.0	0.0	0.0	-0.006	0.0	
5.0	0.0	0.0	0.0	0.0	-0.013	-0.128	
6.0	0.0	0.0	0.0	0.0	0.0	-0.045	
7.0	0.0	0.0	0.0	0.0	0.003	0.032	
8.0	0.0	0.0	0.0	0.0	0.003	0.032	
9.0	0.0	0.0	0.0	0.0	0.003	0.054	
10.0	0.0	0.0	0.0	0.0	0.01	0.064	
11.0	0.0	0.0	0.0	0.0	0.022	0.089	
12.0	0.0	0.0	0.0	0.0	-0.003	-0.105	
13.0	0.0	0.0	0.0	0.0	-0.026	-0.172	
14.0	0.0	0.0	0.0	0.0	-0.019	-0.029	
15.0	0.0	0.0	0.0	0.0	0.003	-0.054	
0.0	0.0	0.0	0.0	0.0	0.026	0.048	
1.0	0.0	0.0	0.0	0.0	-0.01	-0.019	
2.0	0.0	0.0	0.0	0.0	-0.026	-0.019	
3.0	0.0	0.0	0.0	0.0	-0.026	-0.073	
4.0	0.0	0.0	0.0	0.0	0.003	-0.029	
5.0	0.0	0.0	0.0	0.0	0.022	0.029	
6.0	0.0	0.0	0.0	0.0	0.026	0.083	
7.0	0.0	0.0	0.0	0.0	-0.003	0.08	
8.0	0.0	0.0	0.0	0.0	0.006	-0.013	
9.0	0.0	0.0	0.0	0.0	-0.01	-0.105	
10.0	0.0	0.0	0.0	0.0	-0.042	-0.262	
11.0	0.0	0.0	0.0	0.0	-0.003	-0.147	
12.0	0.0	0.0	0.0	0.0	0.013	-0.003	
13.0	0.0	0.0	0.0	0.0	0.0	-0.035	
14.0	0.0	0.0	0.0	0.0	-0.013	0.006	
15.0	0.0	0.0	0.0	0.0	0.0	0.073	
0.0	0.0	0.0	0.0	0.0	0.003	0.08	
1.0	0.0	0.0	0.0	0.0	-0.01	0.08	
2.0	0.0	0.0	0.0	0.0	-0.006	0.086	
3.0	0.0	0.0	0.0	0.0	-0.003	0.109	
4.0	0.0	0.0	0.0	0.0	-0.003	0.038	
5.0	0.0	0.0	0.0	0.0	0.0	-0.077	
6.0	0.0	0.0	0.0	0.0	-0.022	-0.08	
7.0	0.0	0.0	0.0	0.0	-0.006	0.08	
8.0	0.0	0.0	0.0	0.0	-0.003	0.125	
9.0	0.0	0.0	0.0	0.0	-0.026	-0.15	
10.0	0.0	0.0	0.0	0.0	-0.016	-0.3	
11.0	0.0	0.0	0.0	0.0	0.01	-0.246	
12.0	0.0	0.0	0.0	0.0	0.038	-0.057	
13.0	0.0	0.0	0.0	0.0	0.013	0.067	
14.0	0.0	0.0	0.0	0.0	-0.006	0.109	
15.0	0.0	0.0	0.0	0.0	-0.003	-0.003	
0.0	0.0	0.0	0.0	0.0	0.029	-0.08	
1.0	0.0	0.0	0.0	0.0	0.026	-0.013	
2.0	0.0	0.0	0.0	0.0	0.0	0.083	
3.0	0.0	0.0	0.0	0.0	0.003	0.118	
4.0	0.0	0.0	0.0	0.0	0.006	0.048	
5.0	0.0	0.0	0.0	0.0	-0.019	-0.118	
6.0	0.0	0.0	0.0	0.0	-0.006	-0.035	
7.0	0.0	0.0	0.0	0.0	-0.01	0.045	
8.0	0.0	0.0	0.0	0.0	-0.038	-0.013	
9.0	0.0	0.0	0.0	0.0	-0.038	0.035	
10.0	0.0	0.0	0.0	0.0	-0.016	0.006	
11.0	0.0	0.0	0.0	0.0	-0.013	-0.307	
12.0	0.0	0.0	0.0	0.0	0.07	0.022	
13.0	0.0	0.0	0.0	0.0	0.061	0.077	
14.0	0.0	0.0	0.0	0.0	-0.01	0.003	
15.0	0.0	0.0	0.0	0.0	-0.026	-0.118	
0.0	0.0	0.0	0.0	0.0	-0.029	-0.134	
1.0	0.0	0.0	0.0	0.0	0.0	0.042	
2.0	0.0	0.0	0.0	0.0	0.013	0.07	
3.0	0.0	0.0	0.0	0.0	-0.016	-0.006	
4.0	0.0	0.0	0.0	0.0	-0.013	-0.096	
5.0	0.0	0.0	0.0	0.0	0.0	0.006	
6.0	0.0	0.0	0.0	0.0	0.003	0.105	
7.0	0.0	0.0	0.0	0.0	0.0	0.121	
8.0	0.0	0.0	0.0	0.0	0.0	0.109	
9.0	0.0	0.0	0.0	0.0	-0.019	-0.019	
10.0	0.0	0.0	0.0	0.0	-0.032	-0.24	
11.0	0.0	0.0	0.0	0.0	-0.003	-0.128	
12.0	0.0	0.0	0.0	0.0	0.022	0.099	
13.0	0.0	0.0	0.0	0.0	0.003	0.125	
14.0	0.0	0.0	0.0	0.0	0.003	-0.006	
15.0	0.0	0.0	0.0	0.0	-0.013	-0.134	
0.0	0.0	0.0	0.0	0.0	0.003	-0.198	
1.0	0.0	0.0	0.0	0.0	0.0	-0.08	
2.0	0.0	0.0	0.0	0.0	0.019	0.045	
3.0	0.0	0.0	0.0	0.0	0.013	0.121	
4.0	0.0	0.0	0.0	0.0	-0.048	0.022	
5.0	0.0	0.0	0.0	0.0	-0.029	-0.096	
6.0	0.0	0.0	0.0	0.0	0.035	-0.112	
7.0	0.0	0.0	0.0	0.0	0.035	-0.057	
8.0	0.0	0.0	0.0	0.0	0.019	-0.01	
9.0	0.0	0.0	0.0	0.0	0.013	0.032	
10.0	0.0	0.0	0.0	0.0	-0.01	-0.013	
11.0	0.0	0.0	0.0	0.0	-0.035	-0.089	
12.0	0.0	0.0	0.0	0.0	-0.006	-0.054	
13.0	0.0	0.0	0.0	0.0	0.01	0.029	
14.0	0.0	0.0	0.0	0.0	0.01	0.096	
15.0	0.0	0.0	0.0	0.0	-0.006	0.093	
0.0	0.0	0.0	0.0	0.0	-0.016	0.026	
1.0	0.0	0.0	0.0	0.0	-0.026	-0.051	
2.0	0.0	0.0	0.0	0.0	-0.013	0.003	
3.0	0.0	0.0	0.0	0.0	0.0	0.01	
4.0	0.0	0.0	0.0	0.0	0.016	-0.07	
5.0	0.0	0.0	0.0	0.0	0.035	0.045	
6.0	0.0	0.0	0.0	0.0	-0.013	-0.029	
7.0	0.0	0.0	0.0	0.0	-0.026	-0.131	
8.0	0.0	0.0	0.0	0.0	0.013	-0.054	
9.0	0.0	0.0	0.0	0.0	0.022	-0.051	
10.0	0.0	0.0	0.0	0.0	0.013	0.064	
11.0	0.0	0.0	0.0	0.0	0.022	0.172	
12.0	0.0	0.0	0.0	0.0	0.013	0.112	
13.0	0.0	0.0	0.0	0.0	-0.026	-0.224	
14.0	0.0	0.0	0.0	0.0	-0.045	-0.256	
15.0	0.0	0.0	0.0	0.0	-0.022	-0.042	
0.0	0.0	0.0	0.0	0.0	-0.042	-0.057	
1.0	0.0	0.0	0.0	0.0	-0.019	-0.061	
2.0	0.0	0.0	0.0	0.0	0.016	0.086	
3.0	0.0	0.0	0.0	0.0	0.013	0.16	
4.0	0.0	0.0	0.0	0.0	0.032	0.08	
5.0	0.0	0.0	0.0	0.0	0.01	0.0	
6.0	0.0	0.0	0.0	0.0	-0.006	-0.054	
7.0	0.0	0.0	0.0	0.0	-0.022	-0.166	
8.0	0.0	0.0	0.0	0.0	-0.006	-0.115	
9.0	0.0	0.0	0.0	0.0	0.019	0.026	
10.0	0.0	0.0	0.0	0.0	0.01	0.073	
11.0	0.0	0.0	0.0	0.0	0.003	0.048	
12.0	0.0	0.0	0.0	0.0	0.003	0.022	
13.0	0.0	0.0	0.0	0.0	0.016	0.054	
14.0	0.0	0.0	0.0	0.0	0.006	0.016	
15.0	0.0	0.0	0.0	0.0	-0.006	0.054	
0.0	0.0	0.0	0.0	0.0	-0.038	-0.214	
1.0	0.0	0.0	0.0	0.0	-0.026	-0.182	
2.0	0.0	0.0	0.0	0.0	-0.003	-0.006	
3.0	0.0	0.0	0.0	0.0	0.006	0.038	
4.0	0.0	0.0	0.0	0.0	0.01	0.137	
5.0	0.0	0.0	0.0	0.0	0.019	0.128	
6.0	0.0	0.0	0.0	0.0	-0.01	-0.042	
7.0	0.0	0.0	0.0	0.0	-0.042	-0.233	
8.0	0.0	0.0	0.0	0.0	-0.026	-0.147	
9.0	0.0	0.0	0.0	0.0	0.01	0.064	
10.0	0.0	0.0	0.0	0.0	0.035	0.026	
11.0	0.0	0.0	0.0	0.0	0.006	-0.086	
12.0	0.0	0.0	0.0	0.0	0.01	-0.038	
13.0	0.0	0.0	0.0	0.0	0.01	0.048	
14.0	0.0	0.0	0.0	0.0	-0.01	0.07	
15.0	0.0	0.0	0.0	0.0	-0.016	0.016	
0.0	0.0	0.0	0.0	0.0	0.0	0.048	
1.0	0.0	0.0	0.0	0.0	-0.003	-0.057	
2.0	0.0	0.0	0.0	0.0	-0.006	-0.134	
3.0	0.0	0.0	0.0	0.0	0.0	-0.061	
4.0	0.0	0.0	0.0	0.0	0.0	-0.035	
5.0	0.0	0.0	0.0	0.0	0.0	-0.048	
6.0	0.0	0.0	0.0	0.0	0.019	-0.013	
7.0	0.0	0.0	0.0	0.0	0.019	0.051	
8.0	0.0	0.0	0.0	0.0	0.003	0.006	
9.0	0.0	0.0	0.0	0.0	-0.01	0.0	
10.0	0.0	0.0	0.0	0.0	-0.016	-0.051	
11.0	0.0	0.0	0.0	0.0	-0.013	-0.054	
12.0	0.0	0.0	0.0	0.0	0.0	-0.003	
13.0	0.0	0.0	0.0	0.0	-0.003	-0.01	
14.0	0.0	0.0	0.0	0.0	-0.013	-0.022	
15.0	0.0	0.0	0.0	0.0	-0.029	0.083	
0.0	0.0	0.0	0.0	0.0	-0.029	0.172	
1.0	0.0	0.0	0.0	0.0	-0.013	0.144	
2.0	0.0	0.0	0.0	0.0	-0.01	-0.061	
3.0	0.0	0.0	0.0	0.0	0.042	-0.134	
4.0	0.0	0.0	0.0	0.0	0.061	-0.201	
5.0	0.0	0.0	0.0	0.0	0.016	-0.227	
6.0	0.0	0.0	0.0	0.0	0.003	0.013	
7.0	0.0	0.0	0.0	0.0	-0.013	0.112	
8.0	0.0	0.0	0.0	0.0	0.013	0.182	
9.0	0.0	0.0	0.0	0.0	0.0	0.099	
10.0	0.0	0.0	0.0	0.0	-0.029	-0.134	
11.0	0.0	0.0	0.0	0.0	-0.003	-0.099	
12.0	0.0	0.0	0.0	0.0	-0.013	-0.271	
13.0	0.0	0.0	0.0	0.0	-0.01	-0.169	
14.0	0.0	0.0	0.0	0.0	-0.013	-0.026	
15.0	0.0	0.0	0.0	0.0	-0.029	0.109	
0.0	0.0	0.0	0.0	0.0	-0.013	0.157	
1.0	0.0	0.0	0.0	0.0	0.01	0.172	
2.0	0.0	0.0	0.0	0.0	0.003	0.077	
3.0	0.0	0.0	0.0	0.0	-0.019	-0.118	
4.0	0.0	0.0	0.0	0.0	-0.006	-0.048	
5.0	0.0	0.0	0.0	0.0	0.01	-0.217	
6.0	0.0	0.0	0.0	0.0	0.0	-0.313	
7.0	0.0	0.0	0.0	0.0	0.035	-0.042	
8.0	0.0	0.0	0.0	0.0	0.022	0.125	
9.0	0.0	0.0	0.0	0.0	0.003	0.096	
10.0	0.0	0.0	0.0	0.0	0.003	0.08	
11.0	0.0	0.0	0.0	0.0	0.013	0.016	
12.0	0.0	0.0	0.0	0.0	0.003	0.035	
13.0	0.0	0.0	0.0	0.0	-0.01	0.01	
14.0	0.0	0.0	0.0	0.0	0.0	0.057	
15.0	0.0	0.0	0.0	0.0	-0.016	0.01	
0.0	0.0	0.0	0.0	0.0	0.003	0.019	
1.0	0.0	0.0	0.0	0.0	-0.013	-0.121	
2.0	0.0	0.0	0.0	0.0	-0.016	-0.134	
3.0	0.0	0.0	0.0	0.0	0.0	0.026	
4.0	0.0	0.0	0.0	0.0	0.0	0.061	
5.0	0.0	0.0	0.0	0.0	-0.006	0.042	
6.0	0.0	0.0	0.0	0.0	-0.01	0.013	
7.0	0.0	0.0	0.0	0.0	-0.01	0.042	
8.0	0.0	0.0	0.0	0.0	-0.032	-0.006	
9.0	0.0	0.0	0.0	0.0	-0.022	-0.061	
10.0	0.0	0.0	0.0	0.0	0.01	-0.016	
11.0	0.0	0.0	0.0	0.0	0.022	0.064	
12.0	0.0	0.0	0.0	0.0	-0.003	0.077	
13.0	0.0	0.0	0.0	0.0	0.038	-0.073	
14.0	0.0	0.0	0.0	0.0	0.019	-0.246	
15.0	0.0	0.0	0.0	0.0	0.019	-0.115	
0.0	0.0	0.0	0.0	0.0	0.038	0.131	
1.0	0.0	0.0	0.0	0.0	0.019	0.057	
2.0	0.0	0.0	0.0	0.0	-0.003	-0.08	
3.0	0.0	0.0	0.0	0.0	-0.013	0.038	
4.0	0.0	0.0	0.0	0.0	-0.038	-0.048	
5.0	0.0	0.0	0.0	0.0	-0.07	-0.153	
6.0	0.0	0.0	0.0	0.0	-0.029	-0.271	
7.0	0.0	0.0	0.0	0.0	0.051	-0.029	
8.0	0.0	0.0	0.0	0.0	0.042	0.102	
9.0	0.0	0.0	0.0	0.0	0.01	0.048	
10.0	0.0	0.0	0.0	0.0	-0.006	0.0	
11.0	0.0	0.0	0.0	0.0	-0.016	-0.057	
12.0	0.0	0.0	0.0	0.0	-0.003	0.016	
13.0	0.0	0.0	0.0	0.0	0.003	0.07	
14.0	0.0	0.0	0.0	0.0	0.013	0.137	
15.0	0.0	0.0	0.0	0.0	0.003	0.153	
0.0	0.0	0.0	0.0	0.0	-0.035	0.089	
1.0	0.0	0.0	0.0	0.0	-0.067	-0.204	
2.0	0.0	0.0	0.0	0.0	-0.013	-0.275	
3.0	0.0	0.0	0.0	0.0	0.054	0.022	
4.0	0.0	0.0	0.0	0.0	0.048	0.099	
5.0	0.0	0.0	0.0	0.0	0.026	0.07	
6.0	0.0	0.0	0.0	0.0	-0.026	-0.157	
7.0	0.0	0.0	0.0	0.0	-0.045	-0.144	
8.0	0.0	0.0	0.0	0.0	-0.01	0.038	
9.0	0.0	0.0	0.0	0.0	0.013	0.064	
10.0	0.0	0.0	0.0	0.0	-0.016	-0.099	
11.0	0.0	0.0	0.0	0.0	-0.016	-0.073	
12.0	0.0	0.0	0.0	0.0	0.003	0.054	
13.0	0.0	0.0	0.0	0.0	0.016	0.105	
14.0	0.0	0.0	0.0	0.0	0.016	0.115	
15.0	0.0	0.0	0.0	0.0	-0.016	-0.003	
0.0	0.0	0.0	0.0	0.0	-0.045	-0.236	
1.0	0.0	0.0	0.0	0.0	0.003	-0.115	
2.0	0.0	0.0	0.0	0.0	0.016	0.096	
3.0	0.0	0.0	0.0	0.0	0.022	0.176	
4.0	0.0	0.0	0.0	0.0	-0.019	-0.048	
5.0	0.0	0.0	0.0	0.0	-0.013	-0.208	
6.0	0.0	0.0	0.0	0.0	-0.019	-0.192	
7.0	0.0	0.0	0.0	0.0	0.006	-0.032	
8.0	0.0	0.0	0.0	0.0	0.029	0.118	
9.0	0.0	0.0	0.0	0.0	0.003	0.086	
10.0	0.0	0.0	0.0	0.0	0.003	-0.131	
11.0	0.0	0.0	0.0	0.0	-0.016	-0.051	
12.0	0.0	0.0	0.0	0.0	0.01	0.061	
13.0	0.0	0.0	0.0	0.0	0.013	0.128	
14.0	0.0	0.0	0.0	0.0	0.006	0.153	
15.0	0.0	0.0	0.0	0.0	-0.006	0.096	
0.0	0.0	0.0	0.0	0.0	0.006	0.141	
1.0	0.0	0.0	0.0	0.0	-0.019	-0.064	
2.0	0.0	0.0	0.0	0.0	-0.042	-0.386	
3.0	0.0	0.0	0.0	0.0	0.0	-0.278	
4.0	0.0	0.0	0.0	0.0	0.042	-0.022	
5.0	0.0	0.0	0.0	0.0	0.013	-0.057	
6.0	0.0	0.0	0.0	0.0	-0.016	-0.118	
7.0	0.0	0.0	0.0	0.0	0.01	0.086	
8.0	0.0	0.0	0.0	0.0	0.003	0.096	
9.0	0.0	0.0	0.0	0.0	-0.006	-0.102	
10.0	0.0	0.0	0.0	0.0	0.022	0.042	
11.0	0.0	0.0	0.0	0.0	0.016	0.08	
12.0	0.0	0.0	0.0	0.0	-0.003	-0.032	
13.0	0.0	0.0	0.0	0.0	-0.022	-0.118	
14.0	0.0	0.0	0.0	0.0	-0.013	-0.022	
15.0	0.0	0.0	0.0	0.0	-0.01	0.048	
0.0	0.0	0.0	0.0	0.0	-0.003	0.051	
1.0	0.0	0.0	0.0	0.0	-0.003	0.038	
2.0	0.0	0.0	0.0	0.0	-0.01	0.038	
3.0	0.0	0.0	0.0	0.0	-0.01	0.038	
4.0	0.0	0.0	0.0	0.0	-0.016	-0.029	
5.0	0.0	0.0	0.0	0.0	0.0	-0.077	
6.0	0.0	0.0	0.0	0.0	0.003	-0.026	
7.0	0.0	0.0	0.0	0.0	0.022	0.057	
8.0	0.0	0.0	0.0	0.0	0.022	0.045	
9.0	0.0	0.0	0.0	0.0	0.006	-0.029	
10.0	0.0	0.0	0.0	0.0	-0.016	0.022	
11.0	0.0	0.0	0.0	0.0	-0.026	0.013	
12.0	0.0	0.0	0.0	0.0	-0.022	-0.07	
13.0	0.0	0.0	0.0	0.0	-0.029	-0.077	
14.0	0.0	0.0	0.0	0.0	-0.029	-0.077	
15.0	0.0	0.0	0.0	0.0	-0.016	-0.08	
0.0	0.0	0.0	0.0	0.0	0.022	0.003	
1.0	0.0	0.0	0.0	0.0	0.035	0.096	
2.0	0.0	0.0	0.0	0.0	0.026	-0.006	
3.0	0.0	0.0	0.0	0.0	0.038	0.073	
4.0	0.0	0.0	0.0	0.0	-0.016	-0.172	
5.0	0.0	0.0	0.0	0.0	-0.035	-0.246	
6.0	0.0	0.0	0.0	0.0	-0.022	-0.128	
7.0	0.0	0.0	0.0	0.0	0.01	0.093	
8.0	0.0	0.0	0.0	0.0	0.006	0.153	
9.0	0.0	0.0	0.0	0.0	0.006	-0.051	
10.0	0.0	0.0	0.0	0.0	0.016	-0.109	
11.0	0.0	0.0	0.0	0.0	0.0	-0.057	
12.0	0.0	0.0	0.0	0.0	-0.01	-0.019	
13.0	0.0	0.0	0.0	0.0	-0.01	-0.022	
14.0	0.0	0.0	0.0	0.0	0.013	0.013	
15.0	0.0	0.0	0.0	0.0	0.013	0.006	
0.0	0.0	0.0	0.0	0.0	0.003	0.038	
1.0	0.0	0.0	0.0	0.0	0.013	0.118	
2.0	0.0	0.0	0.0	0.0	0.01	0.061	
3.0	0.0	0.0	0.0	0.0	-0.003	0.01	
4.0	0.0	0.0	0.0	0.0	-0.019	-0.003	
5.0	0.0	0.0	0.0	0.0	-0.019	-0.038	
6.0	0.0	0.0	0.0	0.0	-0.006	0.051	
7.0	0.0	0.0	0.0	0.0	-0.006	-0.128	
8.0	0.0	0.0	0.0	0.0	-0.006	-0.214	
9.0	0.0	0.0	0.0	0.0	0.019	-0.032	
10.0	0.0	0.0	0.0	0.0	-0.006	0.016	
11.0	0.0	0.0	0.0	0.0	-0.016	0.01	
12.0	0.0	0.0	0.0	0.0	-0.019	0.003	
13.0	0.0	0.0	0.0	0.0	0.01	0.045	
14.0	0.0	0.0	0.0	0.0	0.016	0.042	
15.0	0.0	0.0	0.0	0.0	-0.003	-0.022	
0.0	0.0	0.0	0.0	0.0	-0.01	-0.045	
1.0	0.0	0.0	0.0	0.0	0.0	0.061	
2.0	0.0	0.0	0.0	0.0	0.01	0.048	
3.0	0.0	0.0	0.0	0.0	0.0	-0.045	
4.0	0.0	0.0	0.0	0.0	0.003	-0.102	
5.0	0.0	0.0	0.0	0.0	0.006	-0.109	
6.0	0.0	0.0	0.0	0.0	-0.003	-0.054	
7.0	0.0	0.0	0.0	0.0	0.0	0.045	
8.0	0.0	0.0	0.0	0.0	0.0	0.016	
9.0	0.0	0.0	0.0	0.0	0.013	0.019	
10.0	0.0	0.0	0.0	0.0	-0.016	-0.125	
11.0	0.0	0.0	0.0	0.0	-0.019	-0.01	
12.0	0.0	0.0	0.0	0.0	-0.003	0.048	
13.0	0.0	0.0	0.0	0.0	-0.006	0.054	
14.0	0.0	0.0	0.0	0.0	-0.029	-0.099	
15.0	0.0	0.0	0.0	0.0	-0.01	-0.064	
0.0	0.0	0.0	0.0	0.0	0.01	-0.064	
1.0	0.0	0.0	0.0	0.0	0.026	-0.013	
2.0	0.0	0.0	0.0	0.0	0.019	0.019	
3.0	0.0	0.0	0.0	0.0	0.029	0.057	
4.0	0.0	0.0	0.0	0.0	-0.003	-0.013	
5.0	0.0	0.0	0.0	0.0	-0.006	-0.08	
6.0	0.0	0.0	0.0	0.0	-0.01	-0.054	
7.0	0.0	0.0	0.0	0.0	0.0	-0.003	
8.0	0.0	0.0	0.0	0.0	-0.022	0.048	
9.0	0.0	0.0	0.0	0.0	-0.01	0.029	
10.0	0.0	0.0	0.0	0.0	0.003	0.003	
11.0	0.0	0.0	0.0	0.0	0.006	-0.016	
12.0	0.0	0.0	0.0	0.0	0.01	0.022	
13.0	0.0	0.0	0.0	0.0	-0.003	0.061	
14.0	0.0	0.0	0.0	0.0	-0.013	0.157	
15.0	0.0	0.0	0.0	0.0	0.019	0.067	
0.0	0.0	0.0	0.0	0.0	0.048	0.042	
1.0	0.0	0.0	0.0	0.0	0.022	-0.198	
2.0	0.0	0.0	0.0	0.0	-0.051	-0.316	
3.0	0.0	0.0	0.0	0.0	-0.054	-0.208	
4.0	0.0	0.0	0.0	0.0	-0.006	-0.022	
5.0	0.0	0.0	0.0	0.0	0.022	0.099	
6.0	0.0	0.0	0.0	0.0	-0.003	0.057	
7.0	0.0	0.0	0.0	0.0	-0.013	-0.038	
8.0	0.0	0.0	0.0	0.0	-0.003	-0.038	
9.0	0.0	0.0	0.0	0.0	0.006	-0.099	
10.0	0.0	0.0	0.0	0.0	-0.003	-0.083	
11.0	0.0	0.0	0.0	0.0	0.003	-0.016	
12.0	0.0	0.0	0.0	0.0	0.003	0.038	
13.0	0.0	0.0	0.0	0.0	0.0	0.048	
14.0	0.0	0.0	0.0	0.0	-0.003	0.077	
15.0	0.0	0.0	0.0	0.0	-0.006	-0.08	
0.0	0.0	0.0	0.0	0.0	0.003	-0.077	
1.0	0.0	0.0	0.0	0.0	0.022	-0.013	
2.0	0.0	0.0	0.0	0.0	0.022	0.019	
3.0	0.0	0.0	0.0	0.0	0.0	0.006	
4.0	0.0	0.0	0.0	0.0	-0.022	-0.042	
5.0	0.0	0.0	0.0	0.0	-0.016	0.038	
6.0	0.0	0.0	0.0	0.0	-0.006	0.048	
7.0	0.0	0.0	0.0	0.0	-0.013	0.042	
8.0	0.0	0.0	0.0	0.0	-0.013	0.08	
9.0	0.0	0.0	0.0	0.0	0.0	0.029	
10.0	0.0	0.0	0.0	0.0	0.013	0.08	
11.0	0.0	0.0	0.0	0.0	-0.003	-0.013	
12.0	0.0	0.0	0.0	0.0	-0.016	-0.153	
13.0	0.0	0.0	0.0	0.0	-0.006	-0.006	
14.0	0.0	0.0	0.0	0.0	-0.026	0.099	
15.0	0.0	0.0	0.0	0.0	-0.038	0.006	
0.0	0.0	0.0	0.0	0.0	0.013	0.01	
1.0	0.0	0.0	0.0	0.0	0.042	-0.236	
2.0	0.0	0.0	0.0	0.0	0.013	-0.217	
3.0	0.0	0.0	0.0	0.0	0.003	-0.077	
4.0	0.0	0.0	0.0	0.0	0.022	-0.054	
5.0	0.0	0.0	0.0	0.0	0.035	-0.064	
6.0	0.0	0.0	0.0	0.0	0.01	-0.051	
7.0	0.0	0.0	0.0	0.0	0.013	0.057	
8.0	0.0	0.0	0.0	0.0	0.003	0.054	
9.0	0.0	0.0	0.0	0.0	-0.022	-0.042	
10.0	0.0	0.0	0.0	0.0	-0.01	0.032	
11.0	0.0	0.0	0.0	0.0	-0.013	-0.013	
12.0	0.0	0.0	0.0	0.0	-0.013	-0.019	
13.0	0.0	0.0	0.0	0.0	0.006	0.112	
14.0	0.0	0.0	0.0	0.0	0.003	0.118	
15.0	0.0	0.0	0.0	0.0	-0.022	0.057	
0.0	0.0	0.0	0.0	0.0	-0.022	-0.051	
1.0	0.0	0.0	0.0	0.0	-0.016	-0.051	
2.0	0.0	0.0	0.0	0.0	-0.016	-0.105	
3.0	0.0	0.0	0.0	0.0	0.013	-0.038	
4.0	0.0	0.0	0.0	0.0	0.022	0.07	
5.0	0.0	0.0	0.0	0.0	-0.022	-0.109	
6.0	0.0	0.0	0.0	0.0	-0.038	-0.026	
7.0	0.0	0.0	0.0	0.0	0.0	0.038	
8.0	0.0	0.0	0.0	0.0	0.057	0.01	
9.0	0.0	0.0	0.0	0.0	0.032	0.035	
10.0	0.0	0.0	0.0	0.0	0.026	0.121	
11.0	0.0	0.0	0.0	0.0	-0.013	-0.147	
12.0	0.0	0.0	0.0	0.0	-0.016	-0.265	
13.0	0.0	0.0	0.0	0.0	-0.003	-0.24	
14.0	0.0	0.0	0.0	0.0	-0.003	-0.099	
15.0	0.0	0.0	0.0	0.0	0.0	0.086	
0.0	0.0	0.0	0.0	0.0	-0.016	0.048	
1.0	0.0	0.0	0.0	0.0	-0.022	0.07	
2.0	0.0	0.0	0.0	0.0	-0.013	0.137	
3.0	0.0	0.0	0.0	0.0	-0.003	0.115	
4.0	0.0	0.0	0.0	0.0	-0.022	-0.054	
5.0	0.0	0.0	0.0	0.0	0.01	0.102	
6.0	0.0	0.0	0.0	0.0	-0.006	-0.134	
7.0	0.0	0.0	0.0	0.0	0.003	-0.15	
8.0	0.0	0.0	0.0	0.0	0.003	-0.115	
9.0	0.0	0.0	0.0	0.0	0.003	-0.035	
10.0	0.0	0.0	0.0	0.0	0.006	0.045	
11.0	0.0	0.0	0.0	0.0	0.026	0.073	
12.0	0.0	0.0	0.0	0.0	0.006	-0.01	
13.0	0.0	0.0	0.0	0.0	-0.016	-0.089	
14.0	0.0	0.0	0.0	0.0	0.0	0.195	
15.0	0.0	0.0	0.0	0.0	0.0	0.195	
0.0	0.0	0.0	0.0	0.0	-0.032	0.089	
1.0	0.0	0.0	0.0	0.0	-0.038	-0.182	
2.0	0.0	0.0	0.0	0.0	-0.003	-0.23	
3.0	0.0	0.0	0.0	0.0	0.01	-0.224	
4.0	0.0	0.0	0.0	0.0	0.042	-0.029	
5.0	0.0	0.0	0.0	0.0	0.051	0.026	
6.0	0.0	0.0	0.0	0.0	0.026	0.026	
7.0	0.0	0.0	0.0	0.0	-0.003	-0.01	
8.0	0.0	0.0	0.0	0.0	-0.006	0.054	
9.0	0.0	0.0	0.0	0.0	-0.016	0.067	
10.0	0.0	0.0	0.0	0.0	-0.038	-0.038	
11.0	0.0	0.0	0.0	0.0	-0.048	-0.112	
12.0	0.0	0.0	0.0	0.0	-0.006	-0.029	
13.0	0.0	0.0	0.0	0.0	-0.013	0.022	
14.0	0.0	0.0	0.0	0.0	0.013	0.045	
15.0	0.0	0.0	0.0	0.0	0.042	-0.022	
0.0	0.0	0.0	0.0	0.0	0.019	-0.109	
1.0	0.0	0.0	0.0	0.0	0.01	-0.019	
2.0	0.0	0.0	0.0	0.0	0.016	0.026	
3.0	0.0	0.0	0.0	0.0	0.003	0.003	
4.0	0.0	0.0	0.0	0.0	-0.013	0.035	
5.0	0.0	0.0	0.0	0.0	-0.029	0.077	
6.0	0.0	0.0	0.0	0.0	-0.016	0.003	
7.0	0.0	0.0	0.0	0.0	-0.013	0.054	
8.0	0.0	0.0	0.0	0.0	-0.019	0.0	
9.0	0.0	0.0	0.0	0.0	-0.022	-0.112	
10.0	0.0	0.0	0.0	0.0	0.006	-0.179	
11.0	0.0	0.0	0.0	0.0	0.035	-0.042	
12.0	0.0	0.0	0.0	0.0	-0.003	-0.01	
13.0	0.0	0.0	0.0	0.0	-0.013	-0.064	
14.0	0.0	0.0	0.0	0.0	0.006	-0.026	
15.0	0.0	0.0	0.0	0.0	0.019	0.061	
0.0	0.0	0.0	0.0	0.0	0.0	0.089	
1.0	0.0	0.0	0.0	0.0	-0.01	0.073	
2.0	0.0	0.0	0.0	0.0	-0.013	-0.013	
3.0	0.0	0.0	0.0	0.0	-0.013	-0.147	
4.0	0.0	0.0	0.0	0.0	-0.029	-0.144	
5.0	0.0	0.0	0.0	0.0	-0.013	-0.042	
6.0	0.0	0.0	0.0	0.0	-0.006	0.115	
7.0	0.0	0.0	0.0	0.0	0.01	0.102	
8.0	0.0	0.0	0.0	0.0	-0.013	0.022	
9.0	0.0	0.0	0.0	0.0	-0.01	0.051	
10.0	0.0	0.0	0.0	0.0	0.035	0.112	
11.0	0.0	0.0	0.0	0.0	0.045	-0.198	
12.0	0.0	0.0	0.0	0.0	0.022	-0.249	
13.0	0.0	0.0	0.0	0.0	-0.006	-0.15	
14.0	0.0	0.0	0.0	0.0	-0.026	-0.061	
15.0	0.0	0.0	0.0	0.0	-0.016	-0.003	
0.0	0.0	0.0	0.0	0.0	-0.01	0.096	
1.0	0.0	0.0	0.0	0.0	0.01	0.013	
2.0	0.0	0.0	0.0	0.0	0.0	-0.042	
3.0	0.0	0.0	0.0	0.0	0.01	0.061	
4.0	0.0	0.0	0.0	0.0	0.013	0.083	
5.0	0.0	0.0	0.0	0.0	-0.029	-0.157	
6.0	0.0	0.0	0.0	0.0	-0.035	-0.128	
7.0	0.0	0.0	0.0	0.0	-0.006	0.061	
8.0	0.0	0.0	0.0	0.0	-0.016	0.064	
9.0	0.0	0.0	0.0	0.0	-0.006	0.022	
10.0	0.0	0.0	0.0	0.0	0.016	-0.006	
11.0	0.0	0.0	0.0	0.0	0.029	-0.019	
12.0	0.0	0.0	0.0	0.0	0.0	0.105	
13.0	0.0	0.0	0.0	0.0	-0.022	0.061	
14.0	0.0	0.0	0.0	0.0	-0.032	0.022	
15.0	0.0	0.0	0.0	0.0	-0.006	-0.073	
0.0	0.0	0.0	0.0	0.0	0.077	0.01	
1.0	0.0	0.0	0.0	0.0	0.035	0.096	
2.0	0.0	0.0	0.0	0.0	-0.013	-0.013	
3.0	0.0	0.0	0.0	0.0	-0.073	-0.406	
4.0	0.0	0.0	0.0	0.0	0.003	-0.179	
5.0	0.0	0.0	0.0	0.0	0.01	0.019	
6.0	0.0	0.0	0.0	0.0	0.003	0.032	
7.0	0.0	0.0	0.0	0.0	0.003	0.013	
8.0	0.0	0.0	0.0	0.0	0.003	0.109	
9.0	0.0	0.0	0.0	0.0	-0.022	-0.048	
10.0	0.0	0.0	0.0	0.0	-0.006	-0.067	
11.0	0.0	0.0	0.0	0.0	-0.01	0.0	
12.0	0.0	0.0	0.0	0.0	0.0	0.0	
13.0	0.0	0.0	0.0	0.0	0.003	0.026	
14.0	0.0	0.0	0.0	0.0	0.032	0.061	
15.0	0.0	0.0	0.0	0.0	0.016	-0.019	
0.0	0.0	0.0	0.0	0.0	0.0	0.086	
1.0	0.0	0.0	0.0	0.0	-0.003	0.144	
2.0	0.0	0.0	0.0	0.0	-0.006	-0.051	
3.0	0.0	0.0	0.0	0.0	-0.013	-0.099	
4.0	0.0	0.0	0.0	0.0	0.022	-0.022	
5.0	0.0	0.0	0.0	0.0	0.01	-0.064	
6.0	0.0	0.0	0.0	0.0	-0.07	-0.24	
7.0	0.0	0.0	0.0	0.0	-0.054	-0.112	
8.0	0.0	0.0	0.0	0.0	-0.013	-0.089	
9.0	0.0	0.0	0.0	0.0	0.045	0.07	
10.0	0.0	0.0	0.0	0.0	0.051	0.073	
11.0	0.0	0.0	0.0	0.0	0.032	-0.042	
12.0	0.0	0.0	0.0	0.0	0.003	-0.128	
13.0	0.0	0.0	0.0	0.0	0.006	0.029	
14.0	0.0	0.0	0.0	0.0	-0.019	0.195	
15.0	0.0	0.0	0.0	0.0	-0.045	0.096	
0.0	0.0	0.0	0.0	0.0	-0.01	-0.166	
1.0	0.0	0.0	0.0	0.0	-0.006	-0.166	
2.0	0.0	0.0	0.0	0.0	0.019	0.131	
3.0	0.0	0.0	0.0	0.0	0.022	0.045	
4.0	0.0	0.0	0.0	0.0	-0.003	-0.054	
5.0	0.0	0.0	0.0	0.0	-0.013	-0.169	
6.0	0.0	0.0	0.0	0.0	-0.019	-0.182	
7.0	0.0	0.0	0.0	0.0	-0.003	0.048	
8.0	0.0	0.0	0.0	0.0	-0.006	0.048	
9.0	0.0	0.0	0.0	0.0	-0.013	0.061	
10.0	0.0	0.0	0.0	0.0	-0.01	0.022	
11.0	0.0	0.0	0.0	0.0	0.0	-0.003	
12.0	0.0	0.0	0.0	0.0	0.003	0.038	
13.0	0.0	0.0	0.0	0.0	0.003	0.042	
14.0	0.0	0.0	0.0	0.0	0.022	0.064	
15.0	0.0	0.0	0.0	0.0	0.006	0.105	
0.0	0.0	0.0	0.0	0.0	-0.026	-0.125	
1.0	0.0	0.0	0.0	0.0	0.013	-0.019	
2.0	0.0	0.0	0.0	0.0	0.016	-0.032	
3.0	0.0	0.0	0.0	0.0	0.006	-0.054	
4.0	0.0	0.0	0.0	0.0	-0.003	-0.026	
5.0	0.0	0.0	0.0	0.0	-0.006	-0.01	
6.0	0.0	0.0	0.0	0.0	-0.029	-0.013	
7.0	0.0	0.0	0.0	0.0	-0.013	0.038	
8.0	0.0	0.0	0.0	0.0	-0.003	-0.029	
9.0	0.0	0.0	0.0	0.0	0.003	-0.102	
10.0	0.0	0.0	0.0	0.0	-0.006	-0.003	
11.0	0.0	0.0	0.0	0.0	-0.026	0.045	
12.0	0.0	0.0	0.0	0.0	-0.013	-0.045	
13.0	0.0	0.0	0.0	0.0	0.01	0.003	
14.0	0.0	0.0	0.0	0.0	0.006	0.016	
15.0	0.0	0.0	0.0	0.0	0.0	-0.016	
0.0	0.0	0.0	0.0	0.0	-0.022	-0.057	
1.0	0.0	0.0	0.0	0.0	0.0	-0.096	
2.0	0.0	0.0	0.0	0.0	0.029	-0.022	
3.0	0.0	0.0	0.0	0.0	0.01	0.035	
4.0	0.0	0.0	0.0	0.0	0.0	-0.038	
5.0	0.0	0.0	0.0	0.0	-0.006	-0.141	
6.0	0.0	0.0	0.0	0.0	-0.013	-0.115	
7.0	0.0	0.0	0.0	0.0	0.0	-0.019	
8.0	0.0	0.0	0.0	0.0	0.026	0.07	
9.0	0.0	0.0	0.0	0.0	0.022	0.179	
10.0	0.0	0.0	0.0	0.0	-0.019	0.112	
11.0	0.0	0.0	0.0	0.0	-0.045	-0.208	
12.0	0.0	0.0	0.0	0.0	0.006	-0.22	
13.0	0.0	0.0	0.0	0.0	0.032	-0.118	
14.0	0.0	0.0	0.0	0.0	0.019	0.077	
15.0	0.0	0.0	0.0	0.0	-0.022	0.153	
0.0	0.0	0.0	0.0	0.0	-0.032	0.099	
1.0	0.0	0.0	0.0	0.0	0.003	-0.006	
2.0	0.0	0.0	0.0	0.0	0.01	-0.026	
3.0	0.0	0.0	0.0	0.0	0.026	0.128	
4.0	0.0	0.0	0.0	0.0	-0.026	-0.195	
5.0	0.0	0.0	0.0	0.0	-0.029	-0.208	
6.0	0.0	0.0	0.0	0.0	0.006	-0.077	
7.0	0.0	0.0	0.0	0.0	0.003	-0.035	
8.0	0.0	0.0	0.0	0.0	0.013	0.131	
9.0	0.0	0.0	0.0	0.0	0.019	0.141	
10.0	0.0	0.0	0.0	0.0	-0.013	0.093	
11.0	0.0	0.0	0.0	0.0	-0.048	-0.061	
12.0	0.0	0.0	0.0	0.0	-0.003	-0.045	
13.0	0.0	0.0	0.0	0.0	0.003	-0.01	
14.0	0.0	0.0	0.0	0.0	0.019	0.067	
15.0	0.0	0.0	0.0	0.0	0.0	-0.169	
0.0	0.0	0.0	0.0	0.0	0.0	-0.271	
1.0	0.0	0.0	0.0	0.0	0.01	-0.026	
2.0	0.0	0.0	0.0	0.0	0.0	-0.026	
3.0	0.0	0.0	0.0	0.0	-0.006	0.057	
4.0	0.0	0.0	0.0	0.0	0.0	0.166	
5.0	0.0	0.0	0.0	0.0	0.0	0.188	
6.0	0.0	0.0	0.0	0.0	-0.013	-0.013	
7.0	0.0	0.0	0.0	0.0	-0.003	-0.105	
8.0	0.0	0.0	0.0	0.0	0.006	0.01	
9.0	0.0	0.0	0.0	0.0	0.01	0.045	
10.0	0.0	0.0	0.0	0.0	-0.006	-0.029	
11.0	0.0	0.0	0.0	0.0	-0.032	-0.169	
12.0	0.0	0.0	0.0	0.0	-0.003	-0.054	
13.0	0.0	0.0	0.0	0.0	0.022	-0.013	
14.0	0.0	0.0	0.0	0.0	0.003	-0.07	
15.0	0.0	0.0	0.0	0.0	-0.016	0.029	
0.0	0.0	0.0	0.0	0.0	-0.003	0.227	
1.0	0.0	0.0	0.0	0.0	-0.003	0.256	
2.0	0.0	0.0	0.0	0.0	-0.029	-0.077	
3.0	0.0	0.0	0.0	0.0	0.01	-0.316	
4.0	0.0	0.0	0.0	0.0	0.013	-0.348	
5.0	0.0	0.0	0.0	0.0	0.045	-0.08	
6.0	0.0	0.0	0.0	0.0	0.019	-0.003	
7.0	0.0	0.0	0.0	0.0	-0.016	-0.08	
8.0	0.0	0.0	0.0	0.0	0.016	0.019	
9.0	0.0	0.0	0.0	0.0	0.016	0.064	
10.0	0.0	0.0	0.0	0.0	0.0	0.048	
11.0	0.0	0.0	0.0	0.0	-0.003	0.07	
12.0	0.0	0.0	0.0	0.0	-0.006	0.067	
13.0	0.0	0.0	0.0	0.0	-0.016	0.057	
14.0	0.0	0.0	0.0	0.0	-0.022	0.089	
15.0	0.0	0.0	0.0	0.0	-0.019	0.099	
0.0	0.0	0.0	0.0	0.0	-0.022	0.073	
1.0	0.0	0.0	0.0	0.0	-0.003	-0.118	
2.0	0.0	0.0	0.0	0.0	-0.013	-0.217	
3.0	0.0	0.0	0.0	0.0	0.003	-0.096	
4.0	0.0	0.0	0.0	0.0	0.022	-0.102	
5.0	0.0	0.0	0.0	0.0	0.032	-0.057	
6.0	0.0	0.0	0.0	0.0	0.019	0.022	
7.0	0.0	0.0	0.0	0.0	0.01	0.061	
8.0	0.0	0.0	0.0	0.0	-0.003	0.013	
9.0	0.0	0.0	0.0	0.0	-0.006	-0.026	
10.0	0.0	0.0	0.0	0.0	-0.026	-0.022	
11.0	0.0	0.0	0.0	0.0	-0.038	-0.006	
12.0	0.0	0.0	0.0	0.0	-0.016	0.038	
13.0	0.0	0.0	0.0	0.0	0.0	-0.067	
14.0	0.0	0.0	0.0	0.0	0.022	0.026	
15.0	0.0	0.0	0.0	0.0	-0.003	0.019	
0.0	0.0	0.0	0.0	0.0	-0.026	-0.077	
1.0	0.0	0.0	0.0	0.0	-0.026	-0.07	
2.0	0.0	0.0	0.0	0.0	-0.026	-0.035	
3.0	0.0	0.0	0.0	0.0	-0.016	-0.147	
4.0	0.0	0.0	0.0	0.0	0.01	-0.067	
5.0	0.0	0.0	0.0	0.0	0.035	0.026	
6.0	0.0	0.0	0.0	0.0	0.029	0.051	
7.0	0.0	0.0	0.0	0.0	0.029	0.153	
8.0	0.0	0.0	0.0	0.0	0.003	0.179	
9.0	0.0	0.0	0.0	0.0	-0.013	0.013	
10.0	0.0	0.0	0.0	0.0	0.003	-0.134	
11.0	0.0	0.0	0.0	0.0	0.006	-0.201	
12.0	0.0	0.0	0.0	0.0	0.016	-0.128	
13.0	0.0	0.0	0.0	0.0	0.019	0.08	
14.0	0.0	0.0	0.0	0.0	-0.003	0.163	
15.0	0.0	0.0	0.0	0.0	-0.016	0.121	
0.0	0.0	0.0	0.0	0.0	-0.026	-0.029	
1.0	0.0	0.0	0.0	0.0	-0.038	-0.105	
2.0	0.0	0.0	0.0	0.0	0.003	0.022	
3.0	0.0	0.0	0.0	0.0	0.022	-0.006	
4.0	0.0	0.0	0.0	0.0	0.0	-0.054	
5.0	0.0	0.0	0.0	0.0	-0.013	-0.099	
6.0	0.0	0.0	0.0	0.0	-0.032	0.035	
7.0	0.0	0.0	0.0	0.0	-0.032	-0.08	
8.0	0.0	0.0	0.0	0.0	-0.01	-0.22	
9.0	0.0	0.0	0.0	0.0	0.0	-0.144	
10.0	0.0	0.0	0.0	0.0	0.013	0.029	
11.0	0.0	0.0	0.0	0.0	0.029	-0.029	
12.0	0.0	0.0	0.0	0.0	0.035	0.054	
13.0	0.0	0.0	0.0	0.0	-0.01	0.032	
14.0	0.0	0.0	0.0	0.0	-0.029	-0.032	
15.0	0.0	0.0	0.0	0.0	-0.013	0.061	
0.0	0.0	0.0	0.0	0.0	0.019	0.089	
1.0	0.0	0.0	0.0	0.0	0.019	0.0	
2.0	0.0	0.0	0.0	0.0	-0.006	-0.064	
3.0	0.0	0.0	0.0	0.0	-0.01	-0.026	
4.0	0.0	0.0	0.0	0.0	0.003	0.15	
5.0	0.0	0.0	0.0	0.0	-0.006	0.15	
6.0	0.0	0.0	0.0	0.0	-0.022	0.013	
7.0	0.0	0.0	0.0	0.0	-0.042	-0.112	
8.0	0.0	0.0	0.0	0.0	-0.019	-0.329	
9.0	0.0	0.0	0.0	0.0	0.026	-0.185	
10.0	0.0	0.0	0.0	0.0	0.026	0.003	
11.0	0.0	0.0	0.0	0.0	0.003	-0.035	
12.0	0.0	0.0	0.0	0.0	0.01	0.086	
13.0	0.0	0.0	0.0	0.0	0.01	0.029	
14.0	0.0	0.0	0.0	0.0	-0.006	-0.019	
15.0	0.0	0.0	0.0	0.0	0.003	0.067	
0.0	0.0	0.0	0.0	0.0	0.006	0.112	
1.0	0.0	0.0	0.0	0.0	-0.042	0.01	
2.0	0.0	0.0	0.0	0.0	-0.032	0.035	
3.0	0.0	0.0	0.0	0.0	0.0	0.048	
4.0	0.0	0.0	0.0	0.0	0.035	-0.099	
5.0	0.0	0.0	0.0	0.0	0.061	-0.067	
6.0	0.0	0.0	0.0	0.0	0.006	-0.086	
7.0	0.0	0.0	0.0	0.0	0.0	-0.038	
8.0	0.0	0.0	0.0	0.0	0.013	0.093	
9.0	0.0	0.0	0.0	0.0	-0.016	-0.134	
10.0	0.0	0.0	0.0	0.0	-0.032	-0.166	
11.0	0.0	0.0	0.0	0.0	-0.003	0.032	
12.0	0.0	0.0	0.0	0.0	0.003	0.169	
13.0	0.0	0.0	0.0	0.0	-0.003	0.032	
14.0	0.0	0.0	0.0	0.0	-0.022	-0.105	
15.0	0.0	0.0	0.0	0.0	-0.01	-0.093	
0.0	0.0	0.0	0.0	0.0	-0.006	-0.096	
1.0	0.0	0.0	0.0	0.0	-0.003	0.019	
2.0	0.0	0.0	0.0	0.0	0.006	0.0	
3.0	0.0	0.0	0.0	0.0	0.006	-0.093	
4.0	0.0	0.0	0.0	0.0	0.035	0.045	
5.0	0.0	0.0	0.0	0.0	0.01	0.061	
6.0	0.0	0.0	0.0	0.0	-0.013	-0.006	
7.0	0.0	0.0	0.0	0.0	-0.022	-0.115	
8.0	0.0	0.0	0.0	0.0	-0.01	-0.064	
9.0	0.0	0.0	0.0	0.0	-0.003	0.048	
10.0	0.0	0.0	0.0	0.0	-0.003	0.077	
11.0	0.0	0.0	0.0	0.0	0.0	0.051	
12.0	0.0	0.0	0.0	0.0	-0.013	-0.013	
13.0	0.0	0.0	0.0	0.0	-0.006	-0.016	
14.0	0.0	0.0	0.0	0.0	-0.029	0.003	
15.0	0.0	0.0	0.0	0.0	-0.006	0.134	
0.0	0.0	0.0	0.0	0.0	-0.022	0.003	
1.0	0.0	0.0	0.0	0.0	-0.006	-0.093	
2.0	0.0	0.0	0.0	0.0	0.042	-0.176	
3.0	0.0	0.0	0.0	0.0	0.048	-0.128	
4.0	0.0	0.0	0.0	0.0	0.029	0.064	
5.0	0.0	0.0	0.0	0.0	0.01	0.038	
6.0	0.0	0.0	0.0	0.0	-0.016	-0.048	
7.0	0.0	0.0	0.0	0.0	0.0	0.019	
8.0	0.0	0.0	0.0	0.0	-0.01	0.035	
9.0	0.0	0.0	0.0	0.0	-0.01	-0.026	
10.0	0.0	0.0	0.0	0.0	-0.006	0.131	
11.0	0.0	0.0	0.0	0.0	-0.022	-0.019	
12.0	0.0	0.0	0.0	0.0	-0.038	-0.332	
13.0	0.0	0.0	0.0	0.0	0.035	-0.109	
14.0	0.0	0.0	0.0	0.0	0.026	0.035	
15.0	0.0	0.0	0.0	0.0	-0.006	-0.089	
0.0	0.0	0.0	0.0	0.0	0.003	-0.08	
1.0	0.0	0.0	0.0	0.0	0.019	0.032	
2.0	0.0	0.0	0.0	0.0	0.003	0.042	
3.0	0.0	0.0	0.0	0.0	-0.006	0.038	
4.0	0.0	0.0	0.0	0.0	-0.006	-0.022	
5.0	0.0	0.0	0.0	0.0	0.003	0.029	
6.0	0.0	0.0	0.0	0.0	-0.006	-0.003	
7.0	0.0	0.0	0.0	0.0	-0.01	-0.013	
8.0	0.0	0.0	0.0	0.0	0.0	0.029	
9.0	0.0	0.0	0.0	0.0	-0.006	0.035	
10.0	0.0	0.0	0.0	0.0	-0.003	0.013	
11.0	0.0	0.0	0.0	0.0	-0.013	-0.032	
12.0	0.0	0.0	0.0	0.0	-0.013	0.013	
13.0	0.0	0.0	0.0	0.0	-0.01	0.019	
14.0	0.0	0.0	0.0	0.0	0.0	0.032	
15.0	0.0	0.0	0.0	0.0	0.022	0.061	
0.0	0.0	0.0	0.0	0.0	0.016	0.077	
1.0	0.0	0.0	0.0	0.0	0.003	0.147	
2.0	0.0	0.0	0.0	0.0	-0.003	0.045	
3.0	0.0	0.0	0.0	0.0	-0.003	-0.061	
4.0	0.0	0.0	0.0	0.0	0.0	0.051	
5.0	0.0	0.0	0.0	0.0	-0.026	0.048	
6.0	0.0	0.0	0.0	0.0	-0.061	-0.492	
7.0	0.0	0.0	0.0	0.0	-0.045	-0.492	
8.0	0.0	0.0	0.0	0.0	0.0	-0.214	
9.0	0.0	0.0	0.0	0.0	0.048	-0.112	
10.0	0.0	0.0	0.0	0.0	0.038	0.01	
11.0	0.0	0.0	0.0	0.0	0.022	0.089	
12.0	0.0	0.0	0.0	0.0	0.01	0.07	
13.0	0.0	0.0	0.0	0.0	-0.01	0.061	
14.0	0.0	0.0	0.0	0.0	-0.006	0.077	
15.0	0.0	0.0	0.0	0.0	-0.006	0.057	
0.0	0.0	0.0	0.0	0.0	-0.003	0.045	
1.0	0.0	0.0	0.0	0.0	0.003	-0.003	
2.0	0.0	0.0	0.0	0.0	0.013	0.016	
3.0	0.0	0.0	0.0	0.0	-0.006	0.042	
4.0	0.0	0.0	0.0	0.0	-0.006	0.01	
5.0	0.0	0.0	0.0	0.0	-0.003	0.038	
6.0	0.0	0.0	0.0	0.0	0.013	0.176	
7.0	0.0	0.0	0.0	0.0	0.026	0.256	
8.0	0.0	0.0	0.0	0.0	0.006	0.284	
9.0	0.0	0.0	0.0	0.0	-0.064	-0.137	
10.0	0.0	0.0	0.0	0.0	-0.08	-0.607	
11.0	0.0	0.0	0.0	0.0	0.016	-0.281	
12.0	0.0	0.0	0.0	0.0	0.026	0.006	
13.0	0.0	0.0	0.0	0.0	0.003	0.112	
14.0	0.0	0.0	0.0	0.0	-0.029	-0.032	
15.0	0.0	0.0	0.0	0.0	-0.029	-0.105	
0.0	0.0	0.0	0.0	0.0	0.01	-0.118	
1.0	0.0	0.0	0.0	0.0	0.019	0.096	
2.0	0.0	0.0	0.0	0.0	-0.003	0.147	
3.0	0.0	0.0	0.0	0.0	0.013	0.061	
4.0	0.0	0.0	0.0	0.0	0.032	-0.093	
5.0	0.0	0.0	0.0	0.0	0.022	-0.115	
6.0	0.0	0.0	0.0	0.0	0.026	0.077	
7.0	0.0	0.0	0.0	0.0	0.022	0.045	
8.0	0.0	0.0	0.0	0.0	-0.006	-0.195	
9.0	0.0	0.0	0.0	0.0	-0.032	-0.246	
10.0	0.0	0.0	0.0	0.0	0.006	-0.006	
11.0	0.0	0.0	0.0	0.0	-0.003	0.064	
12.0	0.0	0.0	0.0	0.0	-0.019	0.051	
13.0	0.0	0.0	0.0	0.0	-0.013	0.048	
14.0	0.0	0.0	0.0	0.0	-0.003	0.073	
15.0	0.0	0.0	0.0	0.0	0.003	0.08	
0.0	0.0	0.0	0.0	0.0	0.003	0.029	
1.0	0.0	0.0	0.0	0.0	-0.013	-0.067	
2.0	0.0	0.0	0.0	0.0	-0.016	-0.029	
3.0	0.0	0.0	0.0	0.0	-0.006	-0.032	
4.0	0.0	0.0	0.0	0.0	0.0	0.003	
5.0	0.0	0.0	0.0	0.0	-0.013	-0.013	
6.0	0.0	0.0	0.0	0.0	-0.01	-0.032	
7.0	0.0	0.0	0.0	0.0	-0.006	-0.083	
8.0	0.0	0.0	0.0	0.0	0.013	0.035	
9.0	0.0	0.0	0.0	0.0	0.01	0.061	
10.0	0.0	0.0	0.0	0.0	-0.003	-0.006	
11.0	0.0	0.0	0.0	0.0	0.0	-0.086	
12.0	0.0	0.0	0.0	0.0	0.022	0.073	
13.0	0.0	0.0	0.0	0.0	0.01	0.029	
14.0	0.0	0.0	0.0	0.0	-0.016	-0.08	
15.0	0.0	0.0	0.0	0.0	-0.022	-0.141	
0.0	0.0	0.0	0.0	0.0	-0.016	-0.115	
1.0	0.0	0.0	0.0	0.0	-0.019	-0.016	
2.0	0.0	0.0	0.0	0.0	0.0	0.137	
3.0	0.0	0.0	0.0	0.0	-0.01	0.125	
4.0	0.0	0.0	0.0	0.0	-0.003	-0.093	
5.0	0.0	0.0	0.0	0.0	0.019	-0.051	
6.0	0.0	0.0	0.0	0.0	0.0	-0.105	
7.0	0.0	0.0	0.0	0.0	0.0	-0.112	
8.0	0.0	0.0	0.0	0.0	0.01	-0.073	
9.0	0.0	0.0	0.0	0.0	0.013	0.013	
10.0	0.0	0.0	0.0	0.0	0.01	0.08	
11.0	0.0	0.0	0.0	0.0	-0.003	0.026	
12.0	0.0	0.0	0.0	0.0	-0.01	0.026	
13.0	0.0	0.0	0.0	0.0	0.016	-0.016	
14.0	0.0	0.0	0.0	0.0	0.01	-0.077	
15.0	0.0	0.0	0.0	0.0	0.0	-0.01	
0.0	0.0	0.0	0.0	0.0	0.016	0.137	
1.0	0.0	0.0	0.0	0.0	0.013	0.105	
2.0	0.0	0.0	0.0	0.0	0.0	-0.013	
3.0	0.0	0.0	0.0	0.0	-0.038	-0.131	
4.0	0.0	0.0	0.0	0.0	-0.019	-0.006	
5.0	0.0	0.0	0.0	0.0	-0.038	0.035	
6.0	0.0	0.0	0.0	0.0	-0.029	0.083	
7.0	0.0	0.0	0.0	0.0	-0.048	-0.15	
8.0	0.0	0.0	0.0	0.0	0.016	-0.342	
9.0	0.0	0.0	0.0	0.0	0.064	-0.16	
10.0	0.0	0.0	0.0	0.0	0.042	0.038	
11.0	0.0	0.0	0.0	0.0	-0.016	0.057	
12.0	0.0	0.0	0.0	0.0	0.016	0.003	
13.0	0.0	0.0	0.0	0.0	0.006	-0.105	
14.0	0.0	0.0	0.0	0.0	0.0	-0.089	
15.0	0.0	0.0	0.0	0.0	0.01	0.057	
0.0	0.0	0.0	0.0	0.0	-0.013	0.086	
1.0	0.0	0.0	0.0	0.0	-0.016	0.003	
2.0	0.0	0.0	0.0	0.0	-0.01	-0.045	
3.0	0.0	0.0	0.0	0.0	-0.006	-0.029	
4.0	0.0	0.0	0.0	0.0	0.006	0.019	
5.0	0.0	0.0	0.0	0.0	0.006	0.038	
6.0	0.0	0.0	0.0	0.0	0.006	0.042	
7.0	0.0	0.0	0.0	0.0	0.01	0.038	
8.0	0.0	0.0	0.0	0.0	0.003	0.029	
9.0	0.0	0.0	0.0	0.0	0.0	0.019	
10.0	0.0	0.0	0.0	0.0	-0.003	0.0	
11.0	0.0	0.0	0.0	0.0	-0.003	0.003	
12.0	0.0	0.0	0.0	0.0	-0.01	0.01	
13.0	0.0	0.0	0.0	0.0	-0.022	-0.042	
14.0	0.0	0.0	0.0	0.0	-0.029	-0.057	
15.0	0.0	0.0	0.0	0.0	-0.016	-0.006	
0.0	0.0	0.0	0.0	0.0	0.0	0.061	
1.0	0.0	0.0	0.0	0.0	-0.013	0.083	
2.0	0.0	0.0	0.0	0.0	-0.026	0.026	
3.0	0.0	0.0	0.0	0.0	-0.003	-0.227	
4.0	0.0	0.0	0.0	0.0	-0.022	-0.176	
5.0	0.0	0.0	0.0	0.0	0.01	-0.07	
6.0	0.0	0.0	0.0	0.0	0.019	-0.042	
7.0	0.0	0.0	0.0	0.0	0.0	-0.054	
8.0	0.0	0.0	0.0	0.0	0.01	0.093	
9.0	0.0	0.0	0.0	0.0	0.013	0.073	
10.0	0.0	0.0	0.0	0.0	-0.006	-0.144	
11.0	0.0	0.0	0.0	0.0	0.006	-0.067	
12.0	0.0	0.0	0.0	0.0	0.029	0.038	
13.0	0.0	0.0	0.0	0.0	0.022	0.038	
14.0	0.0	0.0	0.0	0.0	0.01	0.035	
15.0	0.0	0.0	0.0	0.0	0.01	0.003	
0.0	0.0	0.0	0.0	0.0	0.003	-0.016	
1.0	0.0	0.0	0.0	0.0	0.01	0.003	
2.0	0.0	0.0	0.0	0.0	0.003	-0.006	
3.0	0.0	0.0	0.0	0.0	-0.01	-0.057	
4.0	0.0	0.0	0.0	0.0	-0.003	-0.01	
5.0	0.0	0.0	0.0	0.0	-0.003	0.019	
6.0	0.0	0.0	0.0	0.0	0.006	0.01	
7.0	0.0	0.0	0.0	0.0	0.013	0.01	
8.0	0.0	0.0	0.0	0.0	0.013	0.019	
9.0	0.0	0.0	0.0	0.0	0.019	0.054	
10.0	0.0	0.0	0.0	0.0	-0.01	0.061	
11.0	0.0	0.0	0.0	0.0	-0.032	-0.042	
12.0	0.0	0.0	0.0	0.0	-0.048	-0.08	
13.0	0.0	0.0	0.0	0.0	-0.013	-0.105	
14.0	0.0	0.0	0.0	0.0	-0.013	-0.08	
15.0	0.0	0.0	0.0	0.0	-0.019	-0.019	
0.0	0.0	0.0	0.0	0.0	-0.042	-0.026	
1.0	0.0	0.0	0.0	0.0	-0.016	-0.026	
2.0	0.0	0.0	0.0	0.0	0.01	-0.006	
3.0	0.0	0.0	0.0	0.0	-0.003	0.125	
4.0	0.0	0.0	0.0	0.0	-0.019	0.019	
5.0	0.0	0.0	0.0	0.0	-0.022	-0.102	
6.0	0.0	0.0	0.0	0.0	-0.016	-0.233	
7.0	0.0	0.0	0.0	0.0	0.029	-0.109	
8.0	0.0	0.0	0.0	0.0	0.032	0.019	
9.0	0.0	0.0	0.0	0.0	0.013	-0.061	
10.0	0.0	0.0	0.0	0.0	0.022	0.0	
11.0	0.0	0.0	0.0	0.0	0.045	0.07	
12.0	0.0	0.0	0.0	0.0	0.022	-0.048	
13.0	0.0	0.0	0.0	0.0	-0.003	-0.057	
14.0	0.0	0.0	0.0	0.0	-0.026	0.022	
15.0	0.0	0.0	0.0	0.0	-0.003	0.077	
0.0	0.0	0.0	0.0	0.0	0.0	-0.003	
1.0	0.0	0.0	0.0	0.0	0.0	0.048	
2.0	0.0	0.0	0.0	0.0	-0.016	0.026	
3.0	0.0	0.0	0.0	0.0	-0.026	-0.003	
4.0	0.0	0.0	0.0	0.0	-0.032	-0.016	
5.0	0.0	0.0	0.0	0.0	-0.045	-0.077	
6.0	0.0	0.0	0.0	0.0	-0.042	-0.016	
7.0	0.0	0.0	0.0	0.0	-0.022	0.035	
8.0	0.0	0.0	0.0	0.0	0.0	0.048	
9.0	0.0	0.0	0.0	0.0	-0.013	0.003	
10.0	0.0	0.0	0.0	0.0	-0.016	-0.061	
11.0	0.0	0.0	0.0	0.0	-0.022	-0.035	
12.0	0.0	0.0	0.0	0.0	-0.01	0.013	
13.0	0.0	0.0	0.0	0.0	0.013	0.022	
14.0	0.0	0.0	0.0	0.0	0.003	-0.064	
15.0	0.0	0.0	0.0	0.0	0.016	-0.064	
0.0	0.0	0.0	0.0	0.0	0.019	-0.035	
1.0	0.0	0.0	0.0	0.0	0.038	0.029	
2.0	0.0	0.0	0.0	0.0	0.029	0.019	
3.0	0.0	0.0	0.0	0.0	0.016	-0.032	
4.0	0.0	0.0	0.0	0.0	0.006	0.045	
5.0	0.0	0.0	0.0	0.0	-0.01	-0.08	
6.0	0.0	0.0	0.0	0.0	-0.003	-0.07	
7.0	0.0	0.0	0.0	0.0	0.016	0.022	
8.0	0.0	0.0	0.0	0.0	0.019	0.048	
9.0	0.0	0.0	0.0	0.0	0.016	0.102	
10.0	0.0	0.0	0.0	0.0	0.013	0.073	
11.0	0.0	0.0	0.0	0.0	-0.01	-0.073	
12.0	0.0	0.0	0.0	0.0	-0.003	-0.035	
13.0	0.0	0.0	0.0	0.0	-0.032	-0.102	
14.0	0.0	0.0	0.0	0.0	-0.048	-0.246	
15.0	0.0	0.0	0.0	0.0	-0.003	-0.026	
0.0	0.0	0.0	0.0	0.0	0.035	0.019	
1.0	0.0	0.0	0.0	0.0	0.016	-0.061	
2.0	0.0	0.0	0.0	0.0	-0.006	-0.118	
3.0	0.0	0.0	0.0	0.0	0.029	0.093	
4.0	0.0	0.0	0.0	0.0	0.01	0.08	
5.0	0.0	0.0	0.0	0.0	0.0	0.042	
6.0	0.0	0.0	0.0	0.0	-0.013	0.01	
7.0	0.0	0.0	0.0	0.0	0.006	0.035	
8.0	0.0	0.0	0.0	0.0	0.019	0.067	
9.0	0.0	0.0	0.0	0.0	0.003	-0.115	
10.0	0.0	0.0	0.0	0.0	0.022	-0.118	
11.0	0.0	0.0	0.0	0.0	0.038	0.022	
12.0	0.0	0.0	0.0	0.0	0.01	-0.01	
13.0	0.0	0.0	0.0	0.0	0.003	-0.115	
14.0	0.0	0.0	0.0	0.0	0.029	-0.051	
15.0	0.0	0.0	0.0	0.0	0.026	0.026	
0.0	0.0	0.0	0.0	0.0	0.01	0.064	
1.0	0.0	0.0	0.0	0.0	0.003	0.064	
2.0	0.0	0.0	0.0	0.0	0.006	0.035	
3.0	0.0	0.0	0.0	0.0	-0.013	0.08	
4.0	0.0	0.0	0.0	0.0	-0.016	0.067	
5.0	0.0	0.0	0.0	0.0	0.022	-0.051	
6.0	0.0	0.0	0.0	0.0	0.016	-0.204	
7.0	0.0	0.0	0.0	0.0	-0.026	-0.115	
8.0	0.0	0.0	0.0	0.0	-0.057	-0.048	
9.0	0.0	0.0	0.0	0.0	-0.08	0.077	
10.0	0.0	0.0	0.0	0.0	-0.157	0.022	
11.0	0.0	0.0	0.0	0.0	-0.118	-0.214	
12.0	0.0	0.0	0.0	0.0	-0.026	-0.192	
13.0	0.0	0.0	0.0	0.0	0.01	0.102	
14.0	0.0	0.0	0.0	0.0	0.01	0.16	
15.0	0.0	0.0	0.0	0.0	-0.003	0.054	
0.0	0.0	0.0	0.0	0.0	-0.026	-0.147	
1.0	0.0	0.0	0.0	0.0	-0.029	-0.252	
2.0	0.0	0.0	0.0	0.0	0.057	-0.003	
3.0	0.0	0.0	0.0	0.0	0.112	0.048	
4.0	0.0	0.0	0.0	0.0	0.096	0.019	
5.0	0.0	0.0	0.0	0.0	0.051	-0.019	
6.0	0.0	0.0	0.0	0.0	0.029	0.032	
7.0	0.0	0.0	0.0	0.0	0.013	0.08	
8.0	0.0	0.0	0.0	0.0	0.0	0.022	
9.0	0.0	0.0	0.0	0.0	-0.01	-0.013	
10.0	0.0	0.0	0.0	0.0	-0.003	-0.057	
11.0	0.0	0.0	0.0	0.0	-0.003	-0.057	
12.0	0.0	0.0	0.0	0.0	0.0	0.019	
13.0	0.0	0.0	0.0	0.0	-0.01	0.057	
14.0	0.0	0.0	0.0	0.0	-0.016	0.045	
15.0	0.0	0.0	0.0	0.0	-0.029	0.01	
0.0	0.0	0.0	0.0	0.0	-0.032	-0.026	
1.0	0.0	0.0	0.0	0.0	-0.029	-0.045	
2.0	0.0	0.0	0.0	0.0	-0.051	-0.064	
3.0	0.0	0.0	0.0	0.0	-0.042	-0.026	
4.0	0.0	0.0	0.0	0.0	-0.026	0.006	
5.0	0.0	0.0	0.0	0.0	0.006	0.016	
6.0	0.0	0.0	0.0	0.0	0.042	0.0	
7.0	0.0	0.0	0.0	0.0	0.067	0.003	
8.0	0.0	0.0	0.0	0.0	0.054	-0.01	
9.0	0.0	0.0	0.0	0.0	0.045	-0.013	
10.0	0.0	0.0	0.0	0.0	0.019	-0.029	
11.0	0.0	0.0	0.0	0.0	0.022	-0.003	
12.0	0.0	0.0	0.0	0.0	0.016	0.022	
13.0	0.0	0.0	0.0	0.0	0.01	0.013	
14.0	0.0	0.0	0.0	0.0	-0.026	-0.067	
15.0	0.0	0.0	0.0	0.0	-0.019	-0.051	
0.0	0.0	0.0	0.0	0.0	-0.006	-0.006	
1.0	0.0	0.0	0.0	0.0	0.003	-0.003	
2.0	0.0	0.0	0.0	0.0	-0.022	-0.026	
3.0	0.0	0.0	0.0	0.0	-0.064	-0.045	
4.0	0.0	0.0	0.0	0.0	-0.08	-0.048	
5.0	0.0	0.0	0.0	0.0	-0.073	-0.045	
6.0	0.0	0.0	0.0	0.0	-0.077	-0.045	
7.0	0.0	0.0	0.0	0.0	-0.054	-0.045	
8.0	0.0	0.0	0.0	0.0	-0.045	-0.042	
9.0	0.0	0.0	0.0	0.0	-0.022	0.0	
10.0	0.0	0.0	0.0	0.0	0.003	0.013	
11.0	0.0	0.0	0.0	0.0	0.022	-0.045	
12.0	0.0	0.0	0.0	0.0	0.035	-0.006	
13.0	0.0	0.0	0.0	0.0	0.038	0.029	
14.0	0.0	0.0	0.0	0.0	0.038	0.035	
15.0	0.0	0.0	0.0	0.0	0.022	0.019	
0.0	0.0	0.0	0.0	0.0	0.0	0.0	
1.0	0.0	0.0	0.0	0.0	0.013	-0.029	
2.0	0.0	0.0	0.0	0.0	0.022	-0.035	
3.0	0.0	0.0	0.0	0.0	0.016	-0.029	
4.0	0.0	0.0	0.0	0.0	0.013	-0.013	
5.0	0.0	0.0	0.0	0.0	0.026	0.054	
6.0	0.0	0.0	0.0	0.0	0.022	0.083	
7.0	0.0	0.0	0.0	0.0	0.019	0.029	
8.0	0.0	0.0	0.0	0.0	-0.038	-0.176	
9.0	0.0	0.0	0.0	0.0	-0.022	-0.166	
10.0	0.0	0.0	0.0	0.0	0.0	-0.006	
11.0	0.0	0.0	0.0	0.0	0.0	-0.01	
12.0	0.0	0.0	0.0	0.0	0.01	0.048	
13.0	0.0	0.0	0.0	0.0	0.026	0.08	
14.0	0.0	0.0	0.0	0.0	0.029	0.048	
15.0	0.0	0.0	0.0	0.0	-0.013	-0.089	
0.0	0.0	0.0	0.0	0.0	0.006	-0.054	
1.0	0.0	0.0	0.0	0.0	0.019	-0.061	
2.0	0.0	0.0	0.0	0.0	0.01	-0.032	
3.0	0.0	0.0	0.0	0.0	0.061	-0.016	
4.0	0.0	0.0	0.0	0.0	0.07	-0.134	
5.0	0.0	0.0	0.0	0.0	0.077	-0.003	
6.0	0.0	0.0	0.0	0.0	0.064	0.064	
7.0	0.0	0.0	0.0	0.0	0.038	0.064	
8.0	0.0	0.0	0.0	0.0	0.022	-0.064	
9.0	0.0	0.0	0.0	0.0	0.0	-0.061	
10.0	0.0	0.0	0.0	0.0	-0.01	-0.032	
11.0	0.0	0.0	0.0	0.0	-0.022	-0.042	
12.0	0.0	0.0	0.0	0.0	-0.045	0.013	
13.0	0.0	0.0	0.0	0.0	-0.048	0.083	
14.0	0.0	0.0	0.0	0.0	-0.08	-0.01	
15.0	0.0	0.0	0.0	0.0	-0.109	-0.112	
0.0	0.0	0.0	0.0	0.0	-0.096	0.038	
1.0	0.0	0.0	0.0	0.0	-0.048	0.125	
2.0	0.0	0.0	0.0	0.0	-0.057	0.061	
3.0	0.0	0.0	0.0	0.0	-0.061	0.016	
4.0	0.0	0.0	0.0	0.0	-0.029	0.029	
5.0	0.0	0.0	0.0	0.0	-0.006	-0.067	
6.0	0.0	0.0	0.0	0.0	-0.006	-0.096	
7.0	0.0	0.0	0.0	0.0	-0.035	-0.166	
8.0	0.0	0.0	0.0	0.0	-0.064	-0.211	
9.0	0.0	0.0	0.0	0.0	-0.032	-0.099	
10.0	0.0	0.0	0.0	0.0	-0.006	0.01	
11.0	0.0	0.0	0.0	0.0	0.022	0.016	
12.0	0.0	0.0	0.0	0.0	0.048	0.054	
13.0	0.0	0.0	0.0	0.0	0.057	0.038	
14.0	0.0	0.0	0.0	0.0	0.042	-0.029	
15.0	0.0	0.0	0.0	0.0	0.048	-0.006	
0.0	0.0	0.0	0.0	0.0	0.038	0.029	
1.0	0.0	0.0	0.0	0.0	0.016	0.026	
2.0	0.0	0.0	0.0	0.0	-0.013	0.042	
3.0	0.0	0.0	0.0	0.0	-0.035	0.051	
4.0	0.0	0.0	0.0	0.0	-0.045	0.016	
5.0	0.0	0.0	0.0	0.0	-0.051	-0.022	
6.0	0.0	0.0	0.0	0.0	-0.032	-0.016	
7.0	0.0	0.0	0.0	0.0	-0.022	-0.064	
8.0	0.0	0.0	0.0	0.0	-0.016	0.0	
9.0	0.0	0.0	0.0	0.0	0.019	0.086	
10.0	0.0	0.0	0.0	0.0	0.029	0.102	
11.0	0.0	0.0	0.0	0.0	0.029	0.032	
12.0	0.0	0.0	0.0	0.0	0.022	-0.022	
13.0	0.0	0.0	0.0	0.0	-0.006	-0.042	
14.0	0.0	0.0	0.0	0.0	-0.006	-0.217	
15.0	0.0	0.0	0.0	0.0	-0.022	-0.319	
0.0	0.0	0.0	0.0	0.0	0.042	-0.179	
1.0	0.0	0.0	0.0	0.0	0.057	0.013	
2.0	0.0	0.0	0.0	0.0	0.032	0.121	
3.0	0.0	0.0	0.0	0.0	0.022	0.064	
4.0	0.0	0.0	0.0	0.0	-0.006	0.032	
5.0	0.0	0.0	0.0	0.0	0.019	0.077	
6.0	0.0	0.0	0.0	0.0	0.022	-0.006	
7.0	0.0	0.0	0.0	0.0	0.01	-0.185	
8.0	0.0	0.0	0.0	0.0	0.003	-0.045	
9.0	0.0	0.0	0.0	0.0	0.013	0.204	
10.0	0.0	0.0	0.0	0.0	0.003	0.188	
11.0	0.0	0.0	0.0	0.0	-0.035	0.01	
12.0	0.0	0.0	0.0	0.0	-0.064	-0.339	
13.0	0.0	0.0	0.0	0.0	0.022	-0.105	
14.0	0.0	0.0	0.0	0.0	0.038	-0.038	
15.0	0.0	0.0	0.0	0.0	0.0	-0.045	
0.0	0.0	0.0	0.0	0.0	0.006	0.003	
1.0	0.0	0.0	0.0	0.0	0.022	-0.003	
2.0	0.0	0.0	0.0	0.0	0.016	-0.006	
3.0	0.0	0.0	0.0	0.0	0.003	0.019	
4.0	0.0	0.0	0.0	0.0	-0.016	0.042	
5.0	0.0	0.0	0.0	0.0	-0.026	0.035	
6.0	0.0	0.0	0.0	0.0	-0.013	0.0	
7.0	0.0	0.0	0.0	0.0	-0.003	-0.016	
8.0	0.0	0.0	0.0	0.0	0.013	0.029	
9.0	0.0	0.0	0.0	0.0	0.003	0.013	
10.0	0.0	0.0	0.0	0.0	0.0	0.022	
11.0	0.0	0.0	0.0	0.0	0.006	0.077	
12.0	0.0	0.0	0.0	0.0	0.006	0.006	
13.0	0.0	0.0	0.0	0.0	0.019	-0.022	
14.0	0.0	0.0	0.0	0.0	0.003	-0.109	
15.0	0.0	0.0	0.0	0.0	-0.013	-0.054	
0.0	0.0	0.0	0.0	0.0	0.038	0.067	
1.0	0.0	0.0	0.0	0.0	0.019	0.003	
2.0	0.0	0.0	0.0	0.0	-0.013	-0.096	
3.0	0.0	0.0	0.0	0.0	-0.042	-0.003	
4.0	0.0	0.0	0.0	0.0	-0.054	-0.096	
5.0	0.0	0.0	0.0	0.0	-0.026	-0.096	
6.0	0.0	0.0	0.0	0.0	0.022	-0.006	
7.0	0.0	0.0	0.0	0.0	-0.003	-0.08	
8.0	0.0	0.0	0.0	0.0	-0.026	-0.051	
9.0	0.0	0.0	0.0	0.0	-0.026	-0.006	
10.0	0.0	0.0	0.0	0.0	-0.045	-0.073	
11.0	0.0	0.0	0.0	0.0	-0.019	-0.006	
12.0	0.0	0.0	0.0	0.0	-0.01	0.064	
13.0	0.0	0.0	0.0	0.0	-0.003	0.042	
14.0	0.0	0.0	0.0	0.0	0.003	-0.013	
15.0	0.0	0.0	0.0	0.0	0.0	-0.048	
0.0	0.0	0.0	0.0	0.0	0.029	0.01	
1.0	0.0	0.0	0.0	0.0	0.016	0.048	
2.0	0.0	0.0	0.0	0.0	0.006	0.048	
3.0	0.0	0.0	0.0	0.0	0.006	-0.01	
4.0	0.0	0.0	0.0	0.0	0.006	-0.022	
5.0	0.0	0.0	0.0	0.0	0.013	0.045	
6.0	0.0	0.0	0.0	0.0	-0.003	0.029	
7.0	0.0	0.0	0.0	0.0	0.003	-0.032	
8.0	0.0	0.0	0.0	0.0	0.029	-0.099	
9.0	0.0	0.0	0.0	0.0	0.089	-0.057	
10.0	0.0	0.0	0.0	0.0	0.093	-0.057	
11.0	0.0	0.0	0.0	0.0	0.054	-0.013	
12.0	0.0	0.0	0.0	0.0	0.01	0.006	
13.0	0.0	0.0	0.0	0.0	-0.022	-0.105	
14.0	0.0	0.0	0.0	0.0	-0.006	-0.019	
15.0	0.0	0.0	0.0	0.0	-0.019	0.035	
0.0	0.0	0.0	0.0	0.0	-0.042	0.016	
1.0	0.0	0.0	0.0	0.0	-0.07	-0.045	
2.0	0.0	0.0	0.0	0.0	-0.061	-0.019	
3.0	0.0	0.0	0.0	0.0	-0.029	0.038	
4.0	0.0	0.0	0.0	0.0	0.006	-0.029	
5.0	0.0	0.0	0.0	0.0	0.016	-0.077	
6.0	0.0	0.0	0.0	0.0	-0.026	-0.035	
7.0	0.0	0.0	0.0	0.0	-0.029	-0.013	
8.0	0.0	0.0	0.0	0.0	-0.042	-0.01	
9.0	0.0	0.0	0.0	0.0	-0.045	0.0	
10.0	0.0	0.0	0.0	0.0	-0.029	-0.006	
11.0	0.0	0.0	0.0	0.0	-0.003	-0.013	
12.0	0.0	0.0	0.0	0.0	0.006	0.016	
13.0	0.0	0.0	0.0	0.0	0.022	0.029	
14.0	0.0	0.0	0.0	0.0	0.026	0.051	
15.0	0.0	0.0	0.0	0.0	0.029	0.026	
0.0	0.0	0.0	0.0	0.0	0.003	-0.073	
1.0	0.0	0.0	0.0	0.0	-0.01	-0.057	
2.0	0.0	0.0	0.0	0.0	0.0	-0.013	
3.0	0.0	0.0	0.0	0.0	-0.032	-0.029	
4.0	0.0	0.0	0.0	0.0	-0.077	-0.006	
5.0	0.0	0.0	0.0	0.0	-0.086	0.01	
6.0	0.0	0.0	0.0	0.0	-0.064	-0.016	
7.0	0.0	0.0	0.0	0.0	-0.042	-0.032	
8.0	0.0	0.0	0.0	0.0	-0.029	-0.016	
9.0	0.0	0.0	0.0	0.0	0.003	-0.042	
10.0	0.0	0.0	0.0	0.0	0.029	-0.016	
11.0	0.0	0.0	0.0	0.0	0.038	0.006	
12.0	0.0	0.0	0.0	0.0	0.013	-0.026	
13.0	0.0	0.0	0.0	0.0	0.013	-0.064	
14.0	0.0	0.0	0.0	0.0	0.026	-0.054	
15.0	0.0	0.0	0.0	0.0	0.038	-0.038	
0.0	0.0	0.0	0.0	0.0	0.029	-0.006	
1.0	0.0	0.0	0.0	0.0	0.016	0.089	
2.0	0.0	0.0	0.0	0.0	-0.003	0.064	
3.0	0.0	0.0	0.0	0.0	0.022	0.073	
4.0	0.0	0.0	0.0	0.0	0.032	0.032	
5.0	0.0	0.0	0.0	0.0	0.016	-0.118	
6.0	0.0	0.0	0.0	0.0	-0.006	-0.24	
7.0	0.0	0.0	0.0	0.0	0.029	-0.109	
8.0	0.0	0.0	0.0	0.0	0.029	-0.006	
9.0	0.0	0.0	0.0	0.0	0.045	0.08	
10.0	0.0	0.0	0.0	0.0	0.026	0.201	
11.0	0.0	0.0	0.0	0.0	0.019	0.316	
12.0	0.0	0.0	0.0	0.0	-0.016	0.208	
13.0	0.0	0.0	0.0	0.0	-0.093	-0.319	
14.0	0.0	0.0	0.0	0.0	-0.073	-0.607	
15.0	0.0	0.0	0.0	0.0	0.013	-0.214	
0.0	0.0	0.0	0.0	0.0	0.026	-0.032	
1.0	0.0	0.0	0.0	0.0	0.006	-0.121	
2.0	0.0	0.0	0.0	0.0	0.003	-0.016	
3.0	0.0	0.0	0.0	0.0	0.016	0.105	
4.0	0.0	0.0	0.0	0.0	0.022	0.102	
5.0	0.0	0.0	0.0	0.0	0.01	0.035	
6.0	0.0	0.0	0.0	0.0	0.01	0.073	
7.0	0.0	0.0	0.0	0.0	0.006	0.096	
8.0	0.0	0.0	0.0	0.0	-0.003	0.089	
9.0	0.0	0.0	0.0	0.0	-0.01	0.038	
10.0	0.0	0.0	0.0	0.0	-0.006	0.016	
11.0	0.0	0.0	0.0	0.0	0.006	0.083	
12.0	0.0	0.0	0.0	0.0	-0.026	0.064	
13.0	0.0	0.0	0.0	0.0	-0.032	-0.169	
14.0	0.0	0.0	0.0	0.0	0.016	-0.271	
15.0	0.0	0.0	0.0	0.0	0.035	-0.064	
0.0	0.0	0.0	0.0	0.0	-0.003	-0.022	
1.0	0.0	0.0	0.0	0.0	-0.035	-0.029	
2.0	0.0	0.0	0.0	0.0	-0.032	-0.093	
3.0	0.0	0.0	0.0	0.0	-0.003	-0.003	
4.0	0.0	0.0	0.0	0.0	0.0	0.029	
5.0	0.0	0.0	0.0	0.0	0.003	0.003	
6.0	0.0	0.0	0.0	0.0	-0.003	0.01	
7.0	0.0	0.0	0.0	0.0	-0.01	0.051	
8.0	0.0	0.0	0.0	0.0	-0.013	0.013	
9.0	0.0	0.0	0.0	0.0	-0.013	-0.006	
10.0	0.0	0.0	0.0	0.0	0.0	0.029	
11.0	0.0	0.0	0.0	0.0	-0.013	-0.022	
12.0	0.0	0.0	0.0	0.0	-0.01	-0.045	
13.0	0.0	0.0	0.0	0.0	0.0	-0.029	
14.0	0.0	0.0	0.0	0.0	0.0	-0.016	
15.0	0.0	0.0	0.0	0.0	0.01	-0.006	
0.0	0.0	0.0	0.0	0.0	0.006	0.003	
1.0	0.0	0.0	0.0	0.0	0.0	0.006	
2.0	0.0	0.0	0.0	0.0	0.013	-0.006	
3.0	0.0	0.0	0.0	0.0	0.013	-0.013	
4.0	0.0	0.0	0.0	0.0	-0.003	-0.003	
5.0	0.0	0.0	0.0	0.0	0.0	0.0	
6.0	0.0	0.0	0.0	0.0	0.003	-0.01	
7.0	0.0	0.0	0.0	0.0	-0.006	-0.019	
8.0	0.0	0.0	0.0	0.0	-0.019	0.01	
9.0	0.0	0.0	0.0	0.0	-0.003	-0.019	
10.0	0.0	0.0	0.0	0.0	0.0	-0.067	
11.0	0.0	0.0	0.0	0.0	-0.003	-0.077	
12.0	0.0	0.0	0.0	0.0	0.006	-0.035	
13.0	0.0	0.0	0.0	0.0	0.0	-0.016	
14.0	0.0	0.0	0.0	0.0	-0.01	-0.032	
15.0	0.0	0.0	0.0	0.0	-0.003	-0.01	
0.0	0.0	0.0	0.0	0.0	0.016	0.006	
1.0	0.0	0.0	0.0	0.0	0.016	-0.057	
2.0	0.0	0.0	0.0	0.0	0.029	-0.032	
3.0	0.0	0.0	0.0	0.0	0.032	0.0	
4.0	0.0	0.0	0.0	0.0	0.019	0.026	
5.0	0.0	0.0	0.0	0.0	0.003	0.029	
6.0	0.0	0.0	0.0	0.0	0.006	0.006	
7.0	0.0	0.0	0.0	0.0	0.013	-0.01	
8.0	0.0	0.0	0.0	0.0	0.01	0.003	
9.0	0.0	0.0	0.0	0.0	-0.003	0.01	
10.0	0.0	0.0	0.0	0.0	-0.013	-0.042	
11.0	0.0	0.0	0.0	0.0	-0.038	0.0	
12.0	0.0	0.0	0.0	0.0	-0.045	-0.051	
13.0	0.0	0.0	0.0	0.0	-0.029	-0.073	
14.0	0.0	0.0	0.0	0.0	-0.019	-0.064	
15.0	0.0	0.0	0.0	0.0	-0.022	0.0	
0.0	0.0	0.0	0.0	0.0	-0.051	0.105	
1.0	0.0	0.0	0.0	0.0	-0.07	0.067	
2.0	0.0	0.0	0.0	0.0	-0.035	0.019	
3.0	0.0	0.0	0.0	0.0	0.003	0.01	
4.0	0.0	0.0	0.0	0.0	-0.01	-0.118	
5.0	0.0	0.0	0.0	0.0	0.0	-0.131	
6.0	0.0	0.0	0.0	0.0	0.045	-0.163	
7.0	0.0	0.0	0.0	0.0	0.026	-0.15	
8.0	0.0	0.0	0.0	0.0	0.019	0.0	
9.0	0.0	0.0	0.0	0.0	0.013	0.073	
10.0	0.0	0.0	0.0	0.0	0.003	0.035	
11.0	0.0	0.0	0.0	0.0	-0.032	0.013	
12.0	0.0	0.0	0.0	0.0	0.01	0.121	
13.0	0.0	0.0	0.0	0.0	-0.013	0.01	
14.0	0.0	0.0	0.0	0.0	0.006	0.032	
15.0	0.0	0.0	0.0	0.0	0.013	-0.006	
0.0	0.0	0.0	0.0	0.0	0.01	-0.125	
1.0	0.0	0.0	0.0	0.0	0.01	-0.096	
2.0	0.0	0.0	0.0	0.0	-0.019	-0.089	
3.0	0.0	0.0	0.0	0.0	-0.016	-0.105	
4.0	0.0	0.0	0.0	0.0	0.038	0.038	
5.0	0.0	0.0	0.0	0.0	0.038	0.128	
6.0	0.0	0.0	0.0	0.0	0.016	-0.032	
7.0	0.0	0.0	0.0	0.0	0.038	0.054	
8.0	0.0	0.0	0.0	0.0	0.067	0.163	
9.0	0.0	0.0	0.0	0.0	0.006	-0.022	
10.0	0.0	0.0	0.0	0.0	-0.029	-0.057	
11.0	0.0	0.0	0.0	0.0	-0.038	0.019	
12.0	0.0	0.0	0.0	0.0	-0.054	-0.217	
13.0	0.0	0.0	0.0	0.0	-0.029	-0.128	
14.0	0.0	0.0	0.0	0.0	0.016	-0.188	
15.0	0.0	0.0	0.0	0.0	0.019	-0.163	
0.0	0.0	0.0	0.0	0.0	0.022	-0.022	
1.0	0.0	0.0	0.0	0.0	-0.01	0.112	
2.0	0.0	0.0	0.0	0.0	-0.013	0.182	
3.0	0.0	0.0	0.0	0.0	-0.026	0.134	
4.0	0.0	0.0	0.0	0.0	-0.013	0.045	
5.0	0.0	0.0	0.0	0.0	0.006	-0.054	
6.0	0.0	0.0	0.0	0.0	0.035	-0.163	
7.0	0.0	0.0	0.0	0.0	0.029	-0.035	
8.0	0.0	0.0	0.0	0.0	0.01	0.038	
9.0	0.0	0.0	0.0	0.0	-0.003	0.01	
10.0	0.0	0.0	0.0	0.0	-0.01	0.137	
11.0	0.0	0.0	0.0	0.0	-0.035	0.217	
12.0	0.0	0.0	0.0	0.0	-0.045	0.16	
13.0	0.0	0.0	0.0	0.0	-0.086	-0.169	
14.0	0.0	0.0	0.0	0.0	-0.019	-0.31	
15.0	0.0	0.0	0.0	0.0	0.064	-0.214	
0.0	0.0	0.0	0.0	0.0	0.08	0.029	
1.0	0.0	0.0	0.0	0.0	0.042	0.3	
2.0	0.0	0.0	0.0	0.0	-0.032	0.15	
3.0	0.0	0.0	0.0	0.0	-0.035	-0.032	
4.0	0.0	0.0	0.0	0.0	0.01	-0.243	
5.0	0.0	0.0	0.0	0.0	-0.006	-0.434	
6.0	0.0	0.0	0.0	0.0	0.016	-0.15	
7.0	0.0	0.0	0.0	0.0	0.0	-0.07	
8.0	0.0	0.0	0.0	0.0	-0.01	0.102	
9.0	0.0	0.0	0.0	0.0	-0.01	0.144	
10.0	0.0	0.0	0.0	0.0	-0.045	0.064	
11.0	0.0	0.0	0.0	0.0	-0.016	-0.073	
12.0	0.0	0.0	0.0	0.0	-0.019	-0.204	
13.0	0.0	0.0	0.0	0.0	0.013	0.051	
14.0	0.0	0.0	0.0	0.0	0.026	0.208	
15.0	0.0	0.0	0.0	0.0	0.029	-0.01	
0.0	0.0	0.0	0.0	0.0	0.022	-0.131	
1.0	0.0	0.0	0.0	0.0	0.013	-0.131	
2.0	0.0	0.0	0.0	0.0	-0.003	-0.051	
3.0	0.0	0.0	0.0	0.0	-0.006	0.038	
4.0	0.0	0.0	0.0	0.0	0.0	0.096	
5.0	0.0	0.0	0.0	0.0	0.01	0.141	
6.0	0.0	0.0	0.0	0.0	-0.022	0.172	
7.0	0.0	0.0	0.0	0.0	-0.045	-0.093	
8.0	0.0	0.0	0.0	0.0	-0.016	-0.07	
9.0	0.0	0.0	0.0	0.0	-0.003	0.006	
10.0	0.0	0.0	0.0	0.0	-0.01	0.051	
11.0	0.0	0.0	0.0	0.0	-0.003	-0.093	
12.0	0.0	0.0	0.0	0.0	-0.016	-0.195	
13.0	0.0	0.0	0.0	0.0	-0.003	-0.157	
14.0	0.0	0.0	0.0	0.0	0.013	-0.016	
15.0	0.0	0.0	0.0	0.0	0.038	0.019	
0.0	0.0	0.0	0.0	0.0	0.022	0.01	
1.0	0.0	0.0	0.0	0.0	-0.003	0.003	
2.0	0.0	0.0	0.0	0.0	-0.019	-0.019	
3.0	0.0	0.0	0.0	0.0	0.0	0.042	
4.0	0.0	0.0	0.0	0.0	0.019	0.042	
5.0	0.0	0.0	0.0	0.0	0.006	0.048	
6.0	0.0	0.0	0.0	0.0	0.0	0.057	
7.0	0.0	0.0	0.0	0.0	0.006	0.067	
8.0	0.0	0.0	0.0	0.0	-0.016	0.105	
9.0	0.0	0.0	0.0	0.0	-0.032	-0.061	
10.0	0.0	0.0	0.0	0.0	0.0	-0.121	
11.0	0.0	0.0	0.0	0.0	0.048	-0.048	
12.0	0.0	0.0	0.0	0.0	0.048	-0.064	
13.0	0.0	0.0	0.0	0.0	-0.016	-0.141	
14.0	0.0	0.0	0.0	0.0	-0.054	-0.118	
15.0	0.0	0.0	0.0	0.0	-0.013	-0.016	
0.0	0.0	0.0	0.0	0.0	-0.016	-0.022	
1.0	0.0	0.0	0.0	0.0	0.006	0.029	
2.0	0.0	0.0	0.0	0.0	0.013	0.026	
3.0	0.0	0.0	0.0	0.0	0.006	0.07	
4.0	0.0	0.0	0.0	0.0	-0.013	0.003	
5.0	0.0	0.0	0.0	0.0	0.006	0.112	
6.0	0.0	0.0	0.0	0.0	0.061	0.265	
7.0	0.0	0.0	0.0	0.0	0.029	0.265	
8.0	0.0	0.0	0.0	0.0	-0.048	-0.163	
9.0	0.0	0.0	0.0	0.0	-0.093	-0.46	
10.0	0.0	0.0	0.0	0.0	-0.061	-0.335	
11.0	0.0	0.0	0.0	0.0	-0.042	-0.051	
12.0	0.0	0.0	0.0	0.0	0.0	-0.016	
13.0	0.0	0.0	0.0	0.0	0.0	-0.086	
14.0	0.0	0.0	0.0	0.0	0.022	-0.026	
15.0	0.0	0.0	0.0	0.0	0.054	0.038	
0.0	0.0	0.0	0.0	0.0	0.035	0.038	
1.0	0.0	0.0	0.0	0.0	0.006	0.003	
2.0	0.0	0.0	0.0	0.0	-0.038	-0.176	
3.0	0.0	0.0	0.0	0.0	-0.01	-0.054	
4.0	0.0	0.0	0.0	0.0	0.019	0.08	
5.0	0.0	0.0	0.0	0.0	0.032	0.195	
6.0	0.0	0.0	0.0	0.0	0.016	0.099	
7.0	0.0	0.0	0.0	0.0	0.01	-0.064	
8.0	0.0	0.0	0.0	0.0	-0.013	-0.102	
9.0	0.0	0.0	0.0	0.0	-0.019	-0.048	
10.0	0.0	0.0	0.0	0.0	-0.01	0.022	
11.0	0.0	0.0	0.0	0.0	-0.003	0.083	
12.0	0.0	0.0	0.0	0.0	-0.016	0.016	
13.0	0.0	0.0	0.0	0.0	-0.01	-0.105	
14.0	0.0	0.0	0.0	0.0	0.019	-0.166	
15.0	0.0	0.0	0.0	0.0	0.032	0.077	
0.0	0.0	0.0	0.0	0.0	0.0	0.153	
1.0	0.0	0.0	0.0	0.0	-0.013	0.099	
2.0	0.0	0.0	0.0	0.0	0.006	-0.064	
3.0	0.0	0.0	0.0	0.0	-0.026	-0.073	
4.0	0.0	0.0	0.0	0.0	-0.042	-0.125	
5.0	0.0	0.0	0.0	0.0	-0.019	0.013	
6.0	0.0	0.0	0.0	0.0	-0.006	0.073	
7.0	0.0	0.0	0.0	0.0	0.0	0.214	
8.0	0.0	0.0	0.0	0.0	0.003	0.051	
9.0	0.0	0.0	0.0	0.0	0.0	0.016	
10.0	0.0	0.0	0.0	0.0	0.026	-0.192	
11.0	0.0	0.0	0.0	0.0	0.029	-0.252	
12.0	0.0	0.0	0.0	0.0	0.061	-0.035	
13.0	0.0	0.0	0.0	0.0	0.038	0.262	
14.0	0.0	0.0	0.0	0.0	-0.016	0.252	
15.0	0.0	0.0	0.0	0.0	-0.01	0.003	
0.0	0.0	0.0	0.0	0.0	0.0	-0.316	
1.0	0.0	0.0	0.0	0.0	-0.051	-0.399	
2.0	0.0	0.0	0.0	0.0	-0.064	-0.348	
3.0	0.0	0.0	0.0	0.0	-0.026	-0.313	
4.0	0.0	0.0	0.0	0.0	0.01	-0.003	
5.0	0.0	0.0	0.0	0.0	0.032	0.249	
6.0	0.0	0.0	0.0	0.0	0.013	0.364	
7.0	0.0	0.0	0.0	0.0	-0.022	0.3	
8.0	0.0	0.0	0.0	0.0	-0.035	-0.131	
9.0	0.0	0.0	0.0	0.0	-0.016	-0.441	
10.0	0.0	0.0	0.0	0.0	0.048	-0.093	
11.0	0.0	0.0	0.0	0.0	0.035	0.064	
12.0	0.0	0.0	0.0	0.0	-0.035	0.118	
13.0	0.0	0.0	0.0	0.0	-0.029	0.07	
14.0	0.0	0.0	0.0	0.0	0.032	0.15	
15.0	0.0	0.0	0.0	0.0	0.032	-0.038	
0.0	0.0	0.0	0.0	0.0	0.057	-0.182	
1.0	0.0	0.0	0.0	0.0	0.054	-0.102	
2.0	0.0	0.0	0.0	0.0	0.016	0.029	
3.0	0.0	0.0	0.0	0.0	-0.006	0.022	
4.0	0.0	0.0	0.0	0.0	0.003	0.176	
5.0	0.0	0.0	0.0	0.0	-0.026	0.026	
6.0	0.0	0.0	0.0	0.0	-0.013	-0.083	
7.0	0.0	0.0	0.0	0.0	-0.013	-0.099	
8.0	0.0	0.0	0.0	0.0	-0.029	-0.102	
9.0	0.0	0.0	0.0	0.0	-0.01	0.038	
10.0	0.0	0.0	0.0	0.0	-0.013	0.048	
11.0	0.0	0.0	0.0	0.0	-0.022	0.093	
12.0	0.0	0.0	0.0	0.0	-0.022	0.102	
13.0	0.0	0.0	0.0	0.0	-0.048	-0.15	
14.0	0.0	0.0	0.0	0.0	-0.013	-0.227	
15.0	0.0	0.0	0.0	0.0	0.035	-0.026	
0.0	0.0	0.0	0.0	0.0	0.006	-0.003	
1.0	0.0	0.0	0.0	0.0	0.013	0.019	
2.0	0.0	0.0	0.0	0.0	-0.016	-0.026	
3.0	0.0	0.0	0.0	0.0	-0.022	0.01	
4.0	0.0	0.0	0.0	0.0	-0.003	0.006	
5.0	0.0	0.0	0.0	0.0	0.0	-0.022	
6.0	0.0	0.0	0.0	0.0	0.013	-0.006	
7.0	0.0	0.0	0.0	0.0	0.019	0.003	
8.0	0.0	0.0	0.0	0.0	0.019	0.048	
9.0	0.0	0.0	0.0	0.0	0.026	0.067	
10.0	0.0	0.0	0.0	0.0	0.006	0.045	
11.0	0.0	0.0	0.0	0.0	-0.006	0.096	
12.0	0.0	0.0	0.0	0.0	0.01	0.259	
13.0	0.0	0.0	0.0	0.0	-0.038	0.125	
14.0	0.0	0.0	0.0	0.0	-0.054	-0.102	
15.0	0.0	0.0	0.0	0.0	-0.01	-0.476	
0.0	0.0	0.0	0.0	0.0	0.035	-0.348	
1.0	0.0	0.0	0.0	0.0	0.029	-0.099	
2.0	0.0	0.0	0.0	0.0	-0.01	0.006	
3.0	0.0	0.0	0.0	0.0	-0.003	0.026	
4.0	0.0	0.0	0.0	0.0	-0.01	0.013	
5.0	0.0	0.0	0.0	0.0	-0.013	-0.211	
6.0	0.0	0.0	0.0	0.0	-0.035	-0.061	
7.0	0.0	0.0	0.0	0.0	-0.016	0.045	
8.0	0.0	0.0	0.0	0.0	0.013	0.013	
9.0	0.0	0.0	0.0	0.0	0.022	0.038	
10.0	0.0	0.0	0.0	0.0	0.01	0.083	
11.0	0.0	0.0	0.0	0.0	0.0	0.038	
12.0	0.0	0.0	0.0	0.0	-0.006	-0.08	
13.0	0.0	0.0	0.0	0.0	0.01	0.032	
14.0	0.0	0.0	0.0	0.0	0.026	0.112	
15.0	0.0	0.0	0.0	0.0	0.003	0.051	
0.0	0.0	0.0	0.0	0.0	-0.016	-0.061	
1.0	0.0	0.0	0.0	0.0	-0.01	-0.038	
2.0	0.0	0.0	0.0	0.0	0.0	0.006	
3.0	0.0	0.0	0.0	0.0	-0.003	0.003	
4.0	0.0	0.0	0.0	0.0	-0.01	0.003	
5.0	0.0	0.0	0.0	0.0	-0.006	0.013	
6.0	0.0	0.0	0.0	0.0	-0.006	0.01	
7.0	0.0	0.0	0.0	0.0	0.01	0.016	
8.0	0.0	0.0	0.0	0.0	0.016	0.022	
9.0	0.0	0.0	0.0	0.0	0.013	0.022	
10.0	0.0	0.0	0.0	0.0	0.003	-0.048	
11.0	0.0	0.0	0.0	0.0	-0.003	-0.115	
12.0	0.0	0.0	0.0	0.0	0.029	-0.013	
13.0	0.0	0.0	0.0	0.0	0.019	-0.016	
14.0	0.0	0.0	0.0	0.0	0.013	-0.089	
15.0	0.0	0.0	0.0	0.0	0.016	0.026	
0.0	0.0	0.0	0.0	0.0	0.0	-0.026	
1.0	0.0	0.0	0.0	0.0	0.026	0.0	
2.0	0.0	0.0	0.0	0.0	-0.003	-0.048	
3.0	0.0	0.0	0.0	0.0	-0.038	-0.093	
4.0	0.0	0.0	0.0	0.0	-0.026	-0.102	
5.0	0.0	0.0	0.0	0.0	-0.003	0.019	
6.0	0.0	0.0	0.0	0.0	0.0	0.163	
7.0	0.0	0.0	0.0	0.0	-0.013	0.291	
8.0	0.0	0.0	0.0	0.0	-0.051	0.128	
9.0	0.0	0.0	0.0	0.0	-0.038	-0.112	
10.0	0.0	0.0	0.0	0.0	-0.032	-0.364	
11.0	0.0	0.0	0.0	0.0	-0.013	-0.057	
12.0	0.0	0.0	0.0	0.0	-0.064	-0.169	
13.0	0.0	0.0	0.0	0.0	-0.067	-0.249	
14.0	0.0	0.0	0.0	0.0	0.045	0.099	
15.0	0.0	0.0	0.0	0.0	0.038	0.268	
0.0	0.0	0.0	0.0	0.0	-0.032	0.099	
1.0	0.0	0.0	0.0	0.0	-0.064	0.013	
2.0	0.0	0.0	0.0	0.0	0.006	-0.307	
3.0	0.0	0.0	0.0	0.0	0.131	-0.08	
4.0	0.0	0.0	0.0	0.0	0.163	0.294	
5.0	0.0	0.0	0.0	0.0	0.073	0.195	
6.0	0.0	0.0	0.0	0.0	-0.035	-0.294	
7.0	0.0	0.0	0.0	0.0	-0.051	-0.348	
8.0	0.0	0.0	0.0	0.0	-0.032	-0.166	
9.0	0.0	0.0	0.0	0.0	-0.035	-0.118	
10.0	0.0	0.0	0.0	0.0	-0.003	-0.048	
11.0	0.0	0.0	0.0	0.0	0.003	0.026	
12.0	0.0	0.0	0.0	0.0	0.006	0.08	
13.0	0.0	0.0	0.0	0.0	0.01	0.099	
14.0	0.0	0.0	0.0	0.0	-0.003	0.08	
15.0	0.0	0.0	0.0	0.0	-0.013	0.045	
0.0	0.0	0.0	0.0	0.0	-0.019	0.035	
1.0	0.0	0.0	0.0	0.0	-0.019	0.042	
2.0	0.0	0.0	0.0	0.0	-0.016	0.045	
3.0	0.0	0.0	0.0	0.0	0.01	-0.051	
4.0	0.0	0.0	0.0	0.0	0.01	-0.07	
5.0	0.0	0.0	0.0	0.0	-0.003	0.019	
6.0	0.0	0.0	0.0	0.0	0.0	0.131	
7.0	0.0	0.0	0.0	0.0	0.006	0.201	
8.0	0.0	0.0	0.0	0.0	-0.003	0.217	
9.0	0.0	0.0	0.0	0.0	-0.01	0.093	
10.0	0.0	0.0	0.0	0.0	-0.064	-0.39	
11.0	0.0	0.0	0.0	0.0	-0.006	-0.249	
12.0	0.0	0.0	0.0	0.0	0.048	-0.048	
13.0	0.0	0.0	0.0	0.0	0.013	-0.029	
14.0	0.0	0.0	0.0	0.0	0.0	0.182	
15.0	0.0	0.0	0.0	0.0	-0.013	0.147	
0.0	0.0	0.0	0.0	0.0	0.0	0.137	
1.0	0.0	0.0	0.0	0.0	0.003	-0.048	
2.0	0.0	0.0	0.0	0.0	0.003	-0.265	
3.0	0.0	0.0	0.0	0.0	0.016	-0.402	
4.0	0.0	0.0	0.0	0.0	0.003	-0.3	
5.0	0.0	0.0	0.0	0.0	0.0	-0.188	
6.0	0.0	0.0	0.0	0.0	0.032	0.022	
7.0	0.0	0.0	0.0	0.0	0.01	0.109	
8.0	0.0	0.0	0.0	0.0	-0.032	0.035	
9.0	0.0	0.0	0.0	0.0	0.01	0.08	
10.0	0.0	0.0	0.0	0.0	0.016	0.141	
11.0	0.0	0.0	0.0	0.0	0.006	0.08	
12.0	0.0	0.0	0.0	0.0	-0.01	0.0	
13.0	0.0	0.0	0.0	0.0	-0.013	-0.045	
14.0	0.0	0.0	0.0	0.0	-0.038	-0.073	
15.0	0.0	0.0	0.0	0.0	-0.006	-0.006	
0.0	0.0	0.0	0.0	0.0	0.006	-0.013	
1.0	0.0	0.0	0.0	0.0	-0.003	0.006	
2.0	0.0	0.0	0.0	0.0	-0.006	0.035	
3.0	0.0	0.0	0.0	0.0	0.0	0.051	
4.0	0.0	0.0	0.0	0.0	0.003	0.061	
5.0	0.0	0.0	0.0	0.0	0.01	0.051	
6.0	0.0	0.0	0.0	0.0	0.035	0.086	
7.0	0.0	0.0	0.0	0.0	-0.016	-0.038	
8.0	0.0	0.0	0.0	0.0	-0.054	-0.208	
9.0	0.0	0.0	0.0	0.0	-0.029	-0.089	
10.0	0.0	0.0	0.0	0.0	-0.016	-0.099	
11.0	0.0	0.0	0.0	0.0	0.013	0.019	
12.0	0.0	0.0	0.0	0.0	0.016	0.089	
13.0	0.0	0.0	0.0	0.0	0.013	0.157	
14.0	0.0	0.0	0.0	0.0	0.022	0.073	
15.0	0.0	0.0	0.0	0.0	-0.003	-0.032	
0.0	0.0	0.0	0.0	0.0	-0.013	-0.051	
1.0	0.0	0.0	0.0	0.0	-0.019	-0.144	
2.0	0.0	0.0	0.0	0.0	-0.026	-0.252	
3.0	0.0	0.0	0.0	0.0	0.003	-0.144	
4.0	0.0	0.0	0.0	0.0	0.016	-0.026	
5.0	0.0	0.0	0.0	0.0	0.029	0.029	
6.0	0.0	0.0	0.0	0.0	0.006	0.048	
7.0	0.0	0.0	0.0	0.0	-0.016	-0.051	
8.0	0.0	0.0	0.0	0.0	-0.022	-0.01	
9.0	0.0	0.0	0.0	0.0	-0.01	0.026	
10.0	0.0	0.0	0.0	0.0	-0.006	0.016	
11.0	0.0	0.0	0.0	0.0	-0.006	0.0	
12.0	0.0	0.0	0.0	0.0	0.006	0.016	
13.0	0.0	0.0	0.0	0.0	0.013	0.042	
14.0	0.0	0.0	0.0	0.0	0.038	0.016	
15.0	0.0	0.0	0.0	0.0	0.054	0.022	
0.0	0.0	0.0	0.0	0.0	0.016	-0.013	
1.0	0.0	0.0	0.0	0.0	0.022	-0.051	
2.0	0.0	0.0	0.0	0.0	0.029	0.01	
3.0	0.0	0.0	0.0	0.0	0.029	0.016	
4.0	0.0	0.0	0.0	0.0	0.01	0.045	
5.0	0.0	0.0	0.0	0.0	0.003	0.061	
6.0	0.0	0.0	0.0	0.0	-0.026	-0.029	
7.0	0.0	0.0	0.0	0.0	-0.073	-0.284	
8.0	0.0	0.0	0.0	0.0	-0.061	-0.115	
9.0	0.0	0.0	0.0	0.0	-0.026	-0.01	
10.0	0.0	0.0	0.0	0.0	-0.016	0.029	
11.0	0.0	0.0	0.0	0.0	-0.016	0.105	
12.0	0.0	0.0	0.0	0.0	0.003	0.157	
13.0	0.0	0.0	0.0	0.0	0.0	0.073	
14.0	0.0	0.0	0.0	0.0	-0.08	-0.342	
15.0	0.0	0.0	0.0	0.0	-0.045	-0.128	
0.0	0.0	0.0	0.0	0.0	-0.01	0.061	
1.0	0.0	0.0	0.0	0.0	0.0	-0.013	
2.0	0.0	0.0	0.0	0.0	-0.003	-0.054	
3.0	0.0	0.0	0.0	0.0	-0.003	-0.003	
4.0	0.0	0.0	0.0	0.0	0.022	0.054	
5.0	0.0	0.0	0.0	0.0	0.035	0.073	
6.0	0.0	0.0	0.0	0.0	0.045	0.089	
7.0	0.0	0.0	0.0	0.0	0.035	0.089	
8.0	0.0	0.0	0.0	0.0	0.01	-0.032	
9.0	0.0	0.0	0.0	0.0	0.019	-0.096	
10.0	0.0	0.0	0.0	0.0	0.013	-0.073	
11.0	0.0	0.0	0.0	0.0	-0.01	-0.01	
12.0	0.0	0.0	0.0	0.0	-0.026	0.032	
13.0	0.0	0.0	0.0	0.0	-0.038	0.042	
14.0	0.0	0.0	0.0	0.0	-0.032	-0.099	
15.0	0.0	0.0	0.0	0.0	-0.029	-0.083	
0.0	0.0	0.0	0.0	0.0	-0.016	-0.086	
1.0	0.0	0.0	0.0	0.0	-0.022	-0.31	
2.0	0.0	0.0	0.0	0.0	0.019	-0.096	
3.0	0.0	0.0	0.0	0.0	0.026	0.086	
4.0	0.0	0.0	0.0	0.0	-0.003	0.035	
5.0	0.0	0.0	0.0	0.0	-0.016	0.013	
6.0	0.0	0.0	0.0	0.0	-0.026	0.006	
7.0	0.0	0.0	0.0	0.0	0.006	0.057	
8.0	0.0	0.0	0.0	0.0	0.026	0.077	
9.0	0.0	0.0	0.0	0.0	0.029	0.086	
10.0	0.0	0.0	0.0	0.0	0.054	0.083	
11.0	0.0	0.0	0.0	0.0	0.045	0.096	
12.0	0.0	0.0	0.0	0.0	0.006	-0.073	
13.0	0.0	0.0	0.0	0.0	-0.032	-0.144	
14.0	0.0	0.0	0.0	0.0	-0.042	-0.067	
15.0	0.0	0.0	0.0	0.0	-0.035	-0.172	
0.0	0.0	0.0	0.0	0.0	0.013	-0.109	
1.0	0.0	0.0	0.0	0.0	0.016	-0.105	
2.0	0.0	0.0	0.0	0.0	-0.003	0.038	
3.0	0.0	0.0	0.0	0.0	-0.019	0.195	
4.0	0.0	0.0	0.0	0.0	-0.038	0.188	
5.0	0.0	0.0	0.0	0.0	-0.029	0.048	
6.0	0.0	0.0	0.0	0.0	0.029	-0.016	
7.0	0.0	0.0	0.0	0.0	0.048	-0.067	
8.0	0.0	0.0	0.0	0.0	0.016	-0.048	
9.0	0.0	0.0	0.0	0.0	-0.022	-0.102	
10.0	0.0	0.0	0.0	0.0	-0.032	-0.032	
11.0	0.0	0.0	0.0	0.0	-0.003	-0.121	
12.0	0.0	0.0	0.0	0.0	-0.003	-0.118	
13.0	0.0	0.0	0.0	0.0	0.051	-0.067	
14.0	0.0	0.0	0.0	0.0	0.045	-0.022	
15.0	0.0	0.0	0.0	0.0	0.01	0.026	
0.0	0.0	0.0	0.0	0.0	0.006	0.093	
1.0	0.0	0.0	0.0	0.0	0.0	0.01	
2.0	0.0	0.0	0.0	0.0	-0.01	-0.01	
3.0	0.0	0.0	0.0	0.0	0.019	0.08	
4.0	0.0	0.0	0.0	0.0	0.01	0.061	
5.0	0.0	0.0	0.0	0.0	-0.01	0.064	
6.0	0.0	0.0	0.0	0.0	-0.029	-0.042	
7.0	0.0	0.0	0.0	0.0	-0.006	0.026	
8.0	0.0	0.0	0.0	0.0	0.003	0.086	
9.0	0.0	0.0	0.0	0.0	0.013	-0.064	
10.0	0.0	0.0	0.0	0.0	0.019	0.08	
11.0	0.0	0.0	0.0	0.0	0.0	0.134	
12.0	0.0	0.0	0.0	0.0	-0.064	-0.026	
13.0	0.0	0.0	0.0	0.0	-0.042	-0.386	
14.0	0.0	0.0	0.0	0.0	0.0	-0.358	
15.0	0.0	0.0	0.0	0.0	0.013	-0.064	
0.0	0.0	0.0	0.0	0.0	-0.006	-0.067	
1.0	0.0	0.0	0.0	0.0	-0.026	-0.057	
2.0	0.0	0.0	0.0	0.0	-0.022	-0.061	
3.0	0.0	0.0	0.0	0.0	0.01	0.038	
4.0	0.0	0.0	0.0	0.0	0.013	0.086	
5.0	0.0	0.0	0.0	0.0	0.0	0.022	
6.0	0.0	0.0	0.0	0.0	0.006	0.01	
7.0	0.0	0.0	0.0	0.0	0.006	0.061	
8.0	0.0	0.0	0.0	0.0	0.006	0.099	
9.0	0.0	0.0	0.0	0.0	0.003	0.045	
10.0	0.0	0.0	0.0	0.0	0.013	0.022	
11.0	0.0	0.0	0.0	0.0	-0.01	-0.099	
12.0	0.0	0.0	0.0	0.0	-0.026	-0.118	
13.0	0.0	0.0	0.0	0.0	-0.01	-0.013	
14.0	0.0	0.0	0.0	0.0	0.0	0.022	
15.0	0.0	0.0	0.0	0.0	0.01	0.096	
0.0	0.0	0.0	0.0	0.0	0.01	0.109	
1.0	0.0	0.0	0.0	0.0	-0.019	0.067	
2.0	0.0	0.0	0.0	0.0	-0.045	-0.125	
3.0	0.0	0.0	0.0	0.0	-0.016	-0.163	
4.0	0.0	0.0	0.0	0.0	0.035	-0.048	
5.0	0.0	0.0	0.0	0.0	0.061	0.099	
6.0	0.0	0.0	0.0	0.0	0.057	0.099	
7.0	0.0	0.0	0.0	0.0	0.032	0.032	
8.0	0.0	0.0	0.0	0.0	0.019	0.01	
9.0	0.0	0.0	0.0	0.0	0.0	-0.045	
10.0	0.0	0.0	0.0	0.0	-0.013	0.045	
11.0	0.0	0.0	0.0	0.0	-0.054	-0.038	
12.0	0.0	0.0	0.0	0.0	-0.042	-0.077	
13.0	0.0	0.0	0.0	0.0	-0.051	-0.115	
14.0	0.0	0.0	0.0	0.0	-0.054	-0.355	
15.0	0.0	0.0	0.0	0.0	-0.029	-0.176	
0.0	0.0	0.0	0.0	0.0	-0.013	0.038	
1.0	0.0	0.0	0.0	0.0	-0.01	0.048	
2.0	0.0	0.0	0.0	0.0	-0.022	-0.057	
3.0	0.0	0.0	0.0	0.0	-0.01	0.013	
4.0	0.0	0.0	0.0	0.0	0.01	0.105	
5.0	0.0	0.0	0.0	0.0	0.022	0.061	
6.0	0.0	0.0	0.0	0.0	0.016	0.026	
7.0	0.0	0.0	0.0	0.0	0.029	-0.003	
8.0	0.0	0.0	0.0	0.0	0.019	0.026	
9.0	0.0	0.0	0.0	0.0	0.032	0.093	
10.0	0.0	0.0	0.0	0.0	0.035	0.067	
11.0	0.0	0.0	0.0	0.0	0.01	-0.086	
12.0	0.0	0.0	0.0	0.0	-0.01	-0.179	
13.0	0.0	0.0	0.0	0.0	-0.019	-0.102	
14.0	0.0	0.0	0.0	0.0	-0.016	0.128	
15.0	0.0	0.0	0.0	0.0	-0.006	0.201	
0.0	0.0	0.0	0.0	0.0	-0.003	0.083	
1.0	0.0	0.0	0.0	0.0	-0.006	-0.083	
2.0	0.0	0.0	0.0	0.0	0.035	0.125	
3.0	0.0	0.0	0.0	0.0	0.032	0.128	
4.0	0.0	0.0	0.0	0.0	-0.054	-0.073	
5.0	0.0	0.0	0.0	0.0	-0.109	-0.348	
6.0	0.0	0.0	0.0	0.0	-0.051	-0.418	
7.0	0.0	0.0	0.0	0.0	0.045	-0.182	
8.0	0.0	0.0	0.0	0.0	0.045	-0.086	
9.0	0.0	0.0	0.0	0.0	0.038	0.038	
10.0	0.0	0.0	0.0	0.0	0.016	0.022	
11.0	0.0	0.0	0.0	0.0	0.01	0.0	
12.0	0.0	0.0	0.0	0.0	0.022	0.042	
13.0	0.0	0.0	0.0	0.0	0.029	0.105	
14.0	0.0	0.0	0.0	0.0	0.022	0.096	
15.0	0.0	0.0	0.0	0.0	0.0	-0.022	
0.0	0.0	0.0	0.0	0.0	0.0	0.038	
1.0	0.0	0.0	0.0	0.0	0.006	0.045	
2.0	0.0	0.0	0.0	0.0	-0.006	0.003	
3.0	0.0	0.0	0.0	0.0	-0.003	-0.061	
4.0	0.0	0.0	0.0	0.0	-0.026	-0.115	
5.0	0.0	0.0	0.0	0.0	-0.01	-0.006	
6.0	0.0	0.0	0.0	0.0	-0.013	0.061	
7.0	0.0	0.0	0.0	0.0	-0.003	0.112	
8.0	0.0	0.0	0.0	0.0	-0.029	0.093	
9.0	0.0	0.0	0.0	0.0	-0.029	0.029	
10.0	0.0	0.0	0.0	0.0	-0.042	-0.08	
11.0	0.0	0.0	0.0	0.0	-0.01	-0.019	
12.0	0.0	0.0	0.0	0.0	0.006	0.057	
13.0	0.0	0.0	0.0	0.0	0.029	0.022	
14.0	0.0	0.0	0.0	0.0	0.013	-0.073	
15.0	0.0	0.0	0.0	0.0	0.01	-0.073	
0.0	0.0	0.0	0.0	0.0	0.019	-0.137	
1.0	0.0	0.0	0.0	0.0	-0.01	-0.153	
2.0	0.0	0.0	0.0	0.0	-0.013	-0.109	
3.0	0.0	0.0	0.0	0.0	-0.016	-0.157	
4.0	0.0	0.0	0.0	0.0	-0.019	-0.112	
5.0	0.0	0.0	0.0	0.0	-0.006	-0.022	
6.0	0.0	0.0	0.0	0.0	0.0	0.026	
7.0	0.0	0.0	0.0	0.0	0.003	0.057	
8.0	0.0	0.0	0.0	0.0	0.006	0.089	
9.0	0.0	0.0	0.0	0.0	0.016	0.109	
10.0	0.0	0.0	0.0	0.0	0.013	0.096	
11.0	0.0	0.0	0.0	0.0	0.006	0.07	
12.0	0.0	0.0	0.0	0.0	0.01	0.067	
13.0	0.0	0.0	0.0	0.0	-0.019	-0.016	
14.0	0.0	0.0	0.0	0.0	-0.003	0.102	
15.0	0.0	0.0	0.0	0.0	0.003	0.176	
0.0	0.0	0.0	0.0	0.0	-0.016	0.086	
1.0	0.0	0.0	0.0	0.0	-0.026	0.16	
2.0	0.0	0.0	0.0	0.0	-0.035	-0.128	
3.0	0.0	0.0	0.0	0.0	-0.048	-0.386	
4.0	0.0	0.0	0.0	0.0	-0.067	-0.524	
5.0	0.0	0.0	0.0	0.0	-0.032	-0.412	
6.0	0.0	0.0	0.0	0.0	0.07	-0.073	
7.0	0.0	0.0	0.0	0.0	0.105	0.217	
8.0	0.0	0.0	0.0	0.0	0.07	0.358	
9.0	0.0	0.0	0.0	0.0	-0.006	0.335	
10.0	0.0	0.0	0.0	0.0	-0.054	-0.077	
11.0	0.0	0.0	0.0	0.0	0.0	-0.412	
12.0	0.0	0.0	0.0	0.0	0.054	-0.243	
13.0	0.0	0.0	0.0	0.0	0.064	0.019	
14.0	0.0	0.0	0.0	0.0	0.029	0.013	
15.0	0.0	0.0	0.0	0.0	0.006	-0.013	
0.0	0.0	0.0	0.0	0.0	-0.003	-0.134	
1.0	0.0	0.0	0.0	0.0	0.01	-0.089	
2.0	0.0	0.0	0.0	0.0	0.01	0.016	
3.0	0.0	0.0	0.0	0.0	-0.006	0.061	
4.0	0.0	0.0	0.0	0.0	-0.019	0.073	
5.0	0.0	0.0	0.0	0.0	-0.029	0.064	
6.0	0.0	0.0	0.0	0.0	-0.038	0.077	
7.0	0.0	0.0	0.0	0.0	-0.035	0.061	
8.0	0.0	0.0	0.0	0.0	-0.038	0.064	
9.0	0.0	0.0	0.0	0.0	-0.038	0.057	
10.0	0.0	0.0	0.0	0.0	-0.026	0.045	
11.0	0.0	0.0	0.0	0.0	-0.022	0.038	
12.0	0.0	0.0	0.0	0.0	-0.019	0.051	
13.0	0.0	0.0	0.0	0.0	-0.026	0.153	
14.0	0.0	0.0	0.0	0.0	-0.038	0.045	
15.0	0.0	0.0	0.0	0.0	-0.026	-0.093	
0.0	0.0	0.0	0.0	0.0	0.013	-0.073	
1.0	0.0	0.0	0.0	0.0	0.061	0.125	
2.0	0.0	0.0	0.0	0.0	0.064	0.166	
3.0	0.0	0.0	0.0	0.0	-0.013	-0.297	
4.0	0.0	0.0	0.0	0.0	-0.08	-0.645	
5.0	0.0	0.0	0.0	0.0	-0.003	-0.249	
6.0	0.0	0.0	0.0	0.0	0.07	0.064	
7.0	0.0	0.0	0.0	0.0	0.07	0.051	
8.0	0.0	0.0	0.0	0.0	0.035	0.01	
9.0	0.0	0.0	0.0	0.0	-0.006	-0.057	
10.0	0.0	0.0	0.0	0.0	-0.019	-0.035	
11.0	0.0	0.0	0.0	0.0	-0.019	-0.057	
12.0	0.0	0.0	0.0	0.0	-0.019	0.048	
13.0	0.0	0.0	0.0	0.0	-0.016	0.061	
14.0	0.0	0.0	0.0	0.0	-0.006	0.067	
15.0	0.0	0.0	0.0	0.0	-0.003	-0.003	
0.0	0.0	0.0	0.0	0.0	0.016	0.131	
1.0	0.0	0.0	0.0	0.0	0.061	0.396	
2.0	0.0	0.0	0.0	0.0	0.057	0.396	
3.0	0.0	0.0	0.0	0.0	0.026	0.485	
4.0	0.0	0.0	0.0	0.0	-0.048	0.386	
5.0	0.0	0.0	0.0	0.0	-0.115	-0.153	
6.0	0.0	0.0	0.0	0.0	-0.042	-0.47	
7.0	0.0	0.0	0.0	0.0	0.006	-0.358	
8.0	0.0	0.0	0.0	0.0	-0.048	-0.594	
9.0	0.0	0.0	0.0	0.0	-0.064	-0.588	
10.0	0.0	0.0	0.0	0.0	0.013	-0.54	
11.0	0.0	0.0	0.0	0.0	0.109	-0.297	
12.0	0.0	0.0	0.0	0.0	0.105	0.013	
13.0	0.0	0.0	0.0	0.0	0.061	0.227	
14.0	0.0	0.0	0.0	0.0	-0.003	0.172	
15.0	0.0	0.0	0.0	0.0	-0.054	0.022	
0.0	0.0	0.0	0.0	0.0	-0.032	0.045	
1.0	0.0	0.0	0.0	0.0	-0.01	0.217	
2.0	0.0	0.0	0.0	0.0	-0.029	0.048	
3.0	0.0	0.0	0.0	0.0	-0.013	-0.057	
4.0	0.0	0.0	0.0	0.0	0.013	-0.067	
5.0	0.0	0.0	0.0	0.0	0.032	0.057	
6.0	0.0	0.0	0.0	0.0	0.019	0.15	
7.0	0.0	0.0	0.0	0.0	0.003	0.157	
8.0	0.0	0.0	0.0	0.0	-0.003	0.105	
9.0	0.0	0.0	0.0	0.0	-0.022	-0.105	
10.0	0.0	0.0	0.0	0.0	-0.035	-0.064	
11.0	0.0	0.0	0.0	0.0	-0.006	0.089	
12.0	0.0	0.0	0.0	0.0	-0.006	0.179	
13.0	0.0	0.0	0.0	0.0	-0.038	0.054	
14.0	0.0	0.0	0.0	0.0	-0.042	0.038	
15.0	0.0	0.0	0.0	0.0	0.019	0.032	
0.0	0.0	0.0	0.0	0.0	0.035	0.089	
1.0	0.0	0.0	0.0	0.0	-0.045	-0.125	
2.0	0.0	0.0	0.0	0.0	-0.026	-0.195	
3.0	0.0	0.0	0.0	0.0	0.038	-0.064	
4.0	0.0	0.0	0.0	0.0	0.016	-0.006	
5.0	0.0	0.0	0.0	0.0	0.01	-0.112	
6.0	0.0	0.0	0.0	0.0	-0.01	-0.054	
7.0	0.0	0.0	0.0	0.0	-0.048	-0.118	
8.0	0.0	0.0	0.0	0.0	-0.003	-0.182	
9.0	0.0	0.0	0.0	0.0	0.045	-0.224	
10.0	0.0	0.0	0.0	0.0	0.019	-0.07	
11.0	0.0	0.0	0.0	0.0	0.026	0.051	
12.0	0.0	0.0	0.0	0.0	-0.006	0.08	
13.0	0.0	0.0	0.0	0.0	-0.006	-0.006	
14.0	0.0	0.0	0.0	0.0	-0.019	0.006	
15.0	0.0	0.0	0.0	0.0	-0.01	0.054	
0.0	0.0	0.0	0.0	0.0	-0.01	0.061	
1.0	0.0	0.0	0.0	0.0	0.003	0.061	
2.0	0.0	0.0	0.0	0.0	0.006	0.093	
3.0	0.0	0.0	0.0	0.0	0.035	0.265	
4.0	0.0	0.0	0.0	0.0	0.057	0.406	
5.0	0.0	0.0	0.0	0.0	0.042	0.294	
6.0	0.0	0.0	0.0	0.0	-0.026	0.195	
7.0	0.0	0.0	0.0	0.0	-0.089	0.096	
8.0	0.0	0.0	0.0	0.0	-0.153	-0.099	
9.0	0.0	0.0	0.0	0.0	-0.195	-0.521	
10.0	0.0	0.0	0.0	0.0	-0.093	-0.907	
11.0	0.0	0.0	0.0	0.0	0.083	-0.613	
12.0	0.0	0.0	0.0	0.0	0.15	-0.045	
13.0	0.0	0.0	0.0	0.0	0.153	0.214	
14.0	0.0	0.0	0.0	0.0	0.134	0.249	
15.0	0.0	0.0	0.0	0.0	0.016	0.121	
0.0	0.0	0.0	0.0	0.0	-0.048	-0.224	
1.0	0.0	0.0	0.0	0.0	-0.006	-0.438	
2.0	0.0	0.0	0.0	0.0	0.032	-0.243	
3.0	0.0	0.0	0.0	0.0	0.057	0.013	
4.0	0.0	0.0	0.0	0.0	0.013	0.038	
5.0	0.0	0.0	0.0	0.0	-0.019	0.08	
6.0	0.0	0.0	0.0	0.0	-0.016	0.102	
7.0	0.0	0.0	0.0	0.0	-0.016	0.115	
8.0	0.0	0.0	0.0	0.0	-0.026	0.105	
9.0	0.0	0.0	0.0	0.0	-0.032	0.099	
10.0	0.0	0.0	0.0	0.0	-0.022	0.083	
11.0	0.0	0.0	0.0	0.0	-0.029	0.064	
12.0	0.0	0.0	0.0	0.0	-0.013	0.07	
13.0	0.0	0.0	0.0	0.0	-0.006	0.134	
14.0	0.0	0.0	0.0	0.0	0.013	0.243	
15.0	0.0	0.0	0.0	0.0	0.032	0.396	
0.0	0.0	0.0	0.0	0.0	0.032	0.466	
1.0	0.0	0.0	0.0	0.0	-0.032	0.252	
2.0	0.0	0.0	0.0	0.0	-0.099	-0.246	
3.0	0.0	0.0	0.0	0.0	-0.128	-0.878	
4.0	0.0	0.0	0.0	0.0	-0.032	-0.773	
5.0	0.0	0.0	0.0	0.0	0.067	-0.284	
6.0	0.0	0.0	0.0	0.0	0.07	-0.016	
7.0	0.0	0.0	0.0	0.0	0.029	0.019	
8.0	0.0	0.0	0.0	0.0	0.035	0.141	
9.0	0.0	0.0	0.0	0.0	0.029	0.211	
10.0	0.0	0.0	0.0	0.0	0.01	0.003	
11.0	0.0	0.0	0.0	0.0	-0.013	-0.118	
12.0	0.0	0.0	0.0	0.0	-0.022	-0.144	
13.0	0.0	0.0	0.0	0.0	-0.026	-0.038	
14.0	0.0	0.0	0.0	0.0	-0.013	-0.019	
15.0	0.0	0.0	0.0	0.0	-0.006	-0.016	
0.0	0.0	0.0	0.0	0.0	-0.003	0.029	
1.0	0.0	0.0	0.0	0.0	0.006	0.07	
2.0	0.0	0.0	0.0	0.0	0.016	0.054	
3.0	0.0	0.0	0.0	0.0	0.019	0.038	
4.0	0.0	0.0	0.0	0.0	0.029	0.147	
5.0	0.0	0.0	0.0	0.0	0.045	0.3	
6.0	0.0	0.0	0.0	0.0	0.048	0.463	
7.0	0.0	0.0	0.0	0.0	0.0	0.505	
8.0	0.0	0.0	0.0	0.0	-0.102	0.211	
9.0	0.0	0.0	0.0	0.0	-0.099	0.217	
10.0	0.0	0.0	0.0	0.0	-0.141	0.109	
11.0	0.0	0.0	0.0	0.0	-0.102	-0.307	
12.0	0.0	0.0	0.0	0.0	0.054	-0.61	
13.0	0.0	0.0	0.0	0.0	0.032	-1.345	
14.0	0.0	0.0	0.0	0.0	0.093	-1.06	
15.0	0.0	0.0	0.0	0.0	0.153	-0.326	
0.0	0.0	0.0	0.0	0.0	0.131	0.153	
1.0	0.0	0.0	0.0	0.0	0.051	0.256	
2.0	0.0	0.0	0.0	0.0	-0.016	0.131	
3.0	0.0	0.0	0.0	0.0	-0.006	0.144	
4.0	0.0	0.0	0.0	0.0	-0.01	0.23	
5.0	0.0	0.0	0.0	0.0	-0.035	0.144	
6.0	0.0	0.0	0.0	0.0	-0.051	0.038	
7.0	0.0	0.0	0.0	0.0	-0.026	0.006	
8.0	0.0	0.0	0.0	0.0	-0.013	0.032	
9.0	0.0	0.0	0.0	0.0	-0.016	0.07	
10.0	0.0	0.0	0.0	0.0	-0.013	0.08	
11.0	0.0	0.0	0.0	0.0	-0.003	0.051	
12.0	0.0	0.0	0.0	0.0	-0.01	0.048	
13.0	0.0	0.0	0.0	0.0	-0.006	0.125	
14.0	0.0	0.0	0.0	0.0	0.003	0.227	
15.0	0.0	0.0	0.0	0.0	-0.006	0.153	
0.0	0.0	0.0	0.0	0.0	-0.019	0.099	
1.0	0.0	0.0	0.0	0.0	-0.048	0.061	
2.0	0.0	0.0	0.0	0.0	-0.051	0.057	
3.0	0.0	0.0	0.0	0.0	-0.026	0.07	
4.0	0.0	0.0	0.0	0.0	-0.003	-0.125	
5.0	0.0	0.0	0.0	0.0	0.003	-0.259	
6.0	0.0	0.0	0.0	0.0	0.042	-0.236	
7.0	0.0	0.0	0.0	0.0	0.048	-0.268	
8.0	0.0	0.0	0.0	0.0	0.038	-0.316	
9.0	0.0	0.0	0.0	0.0	-0.006	-0.275	
10.0	0.0	0.0	0.0	0.0	-0.038	-0.192	
11.0	0.0	0.0	0.0	0.0	-0.019	-0.125	
12.0	0.0	0.0	0.0	0.0	0.003	0.01	
13.0	0.0	0.0	0.0	0.0	0.035	0.144	
14.0	0.0	0.0	0.0	0.0	0.013	0.128	
15.0	0.0	0.0	0.0	0.0	-0.006	0.121	
0.0	0.0	0.0	0.0	0.0	-0.01	0.077	
1.0	0.0	0.0	0.0	0.0	-0.003	0.067	
2.0	0.0	0.0	0.0	0.0	0.006	0.061	
3.0	0.0	0.0	0.0	0.0	-0.006	0.051	
4.0	0.0	0.0	0.0	0.0	-0.01	0.035	
5.0	0.0	0.0	0.0	0.0	-0.01	0.029	
6.0	0.0	0.0	0.0	0.0	-0.006	0.013	
7.0	0.0	0.0	0.0	0.0	0.003	0.07	
8.0	0.0	0.0	0.0	0.0	0.032	0.23	
9.0	0.0	0.0	0.0	0.0	0.045	0.259	
10.0	0.0	0.0	0.0	0.0	0.029	0.284	
11.0	0.0	0.0	0.0	0.0	-0.003	0.342	
12.0	0.0	0.0	0.0	0.0	-0.105	0.013	
13.0	0.0	0.0	0.0	0.0	-0.118	-0.415	
14.0	0.0	0.0	0.0	0.0	-0.013	-0.038	
15.0	0.0	0.0	0.0	0.0	-0.003	0.093	
0.0	0.0	0.0	0.0	0.0	-0.128	-0.262	
1.0	0.0	0.0	0.0	0.0	-0.054	-0.377	
2.0	0.0	0.0	0.0	0.0	0.093	-0.511	
3.0	0.0	0.0	0.0	0.0	0.192	-0.383	
4.0	0.0	0.0	0.0	0.0	0.15	-0.323	
5.0	0.0	0.0	0.0	0.0	0.077	-0.271	
6.0	0.0	0.0	0.0	0.0	0.042	0.0	
7.0	0.0	0.0	0.0	0.0	0.003	0.08	
8.0	0.0	0.0	0.0	0.0	-0.029	0.115	
9.0	0.0	0.0	0.0	0.0	-0.032	0.137	
10.0	0.0	0.0	0.0	0.0	-0.054	-0.099	
11.0	0.0	0.0	0.0	0.0	-0.035	-0.029	
12.0	0.0	0.0	0.0	0.0	-0.022	0.201	
13.0	0.0	0.0	0.0	0.0	-0.006	0.259	
14.0	0.0	0.0	0.0	0.0	0.003	0.166	
15.0	0.0	0.0	0.0	0.0	0.003	0.153	
0.0	0.0	0.0	0.0	0.0	-0.045	0.048	
1.0	0.0	0.0	0.0	0.0	-0.112	-0.224	
2.0	0.0	0.0	0.0	0.0	-0.013	0.351	
3.0	0.0	0.0	0.0	0.0	0.089	0.907	
4.0	0.0	0.0	0.0	0.0	0.057	0.696	
5.0	0.0	0.0	0.0	0.0	-0.029	0.345	
6.0	0.0	0.0	0.0	0.0	-0.179	-0.438	
7.0	0.0	0.0	0.0	0.0	-0.185	-0.843	
8.0	0.0	0.0	0.0	0.0	0.093	-1.006	
9.0	0.0	0.0	0.0	0.0	0.182	-0.693	
10.0	0.0	0.0	0.0	0.0	0.083	-0.508	
11.0	0.0	0.0	0.0	0.0	-0.01	-0.47	
12.0	0.0	0.0	0.0	0.0	0.057	-0.182	
13.0	0.0	0.0	0.0	0.0	0.077	0.351	
14.0	0.0	0.0	0.0	0.0	-0.006	0.342	
15.0	0.0	0.0	0.0	0.0	-0.083	0.003	
0.0	0.0	0.0	0.0	0.0	-0.057	-0.08	
1.0	0.0	0.0	0.0	0.0	-0.016	0.07	
2.0	0.0	0.0	0.0	0.0	0.022	0.057	
3.0	0.0	0.0	0.0	0.0	0.029	0.086	
4.0	0.0	0.0	0.0	0.0	0.016	0.15	
5.0	0.0	0.0	0.0	0.0	-0.013	0.256	
6.0	0.0	0.0	0.0	0.0	-0.01	0.31	
7.0	0.0	0.0	0.0	0.0	-0.029	0.15	
8.0	0.0	0.0	0.0	0.0	-0.026	0.137	
9.0	0.0	0.0	0.0	0.0	-0.029	0.307	
10.0	0.0	0.0	0.0	0.0	-0.035	0.316	
11.0	0.0	0.0	0.0	0.0	0.01	0.208	
12.0	0.0	0.0	0.0	0.0	0.016	-0.246	
13.0	0.0	0.0	0.0	0.0	-0.016	-0.265	
14.0	0.0	0.0	0.0	0.0	-0.01	-0.057	
15.0	0.0	0.0	0.0	0.0	0.038	0.054	
0.0	0.0	0.0	0.0	0.0	0.045	0.045	
1.0	0.0	0.0	0.0	0.0	-0.045	-0.236	
2.0	0.0	0.0	0.0	0.0	-0.182	-0.668	
3.0	0.0	0.0	0.0	0.0	-0.115	-0.565	
4.0	0.0	0.0	0.0	0.0	0.096	-0.428	
5.0	0.0	0.0	0.0	0.0	0.163	-0.224	
6.0	0.0	0.0	0.0	0.0	0.105	0.016	
7.0	0.0	0.0	0.0	0.0	0.016	0.051	
8.0	0.0	0.0	0.0	0.0	-0.013	0.153	
9.0	0.0	0.0	0.0	0.0	0.0	0.083	
10.0	0.0	0.0	0.0	0.0	0.006	0.054	
11.0	0.0	0.0	0.0	0.0	0.0	0.147	
12.0	0.0	0.0	0.0	0.0	0.0	0.166	
13.0	0.0	0.0	0.0	0.0	-0.01	0.137	
14.0	0.0	0.0	0.0	0.0	-0.019	0.102	
15.0	0.0	0.0	0.0	0.0	-0.022	0.077	
0.0	0.0	0.0	0.0	0.0	-0.026	0.045	
1.0	0.0	0.0	0.0	0.0	-0.006	0.022	
2.0	0.0	0.0	0.0	0.0	-0.003	0.029	
3.0	0.0	0.0	0.0	0.0	0.013	0.144	
4.0	0.0	0.0	0.0	0.0	0.019	0.15	
5.0	0.0	0.0	0.0	0.0	0.003	0.204	
6.0	0.0	0.0	0.0	0.0	0.0	0.565	
7.0	0.0	0.0	0.0	0.0	-0.006	0.798	
8.0	0.0	0.0	0.0	0.0	0.01	0.837	
9.0	0.0	0.0	0.0	0.0	-0.045	0.214	
10.0	0.0	0.0	0.0	0.0	-0.16	-0.77	
11.0	0.0	0.0	0.0	0.0	-0.179	-1.635	
12.0	0.0	0.0	0.0	0.0	-0.035	-1.546	
13.0	0.0	0.0	0.0	0.0	0.131	-0.508	
14.0	0.0	0.0	0.0	0.0	0.22	0.064	
15.0	0.0	0.0	0.0	0.0	0.179	0.278	
0.0	0.0	0.0	0.0	0.0	0.054	0.275	
1.0	0.0	0.0	0.0	0.0	-0.064	-0.169	
2.0	0.0	0.0	0.0	0.0	-0.102	-0.278	
3.0	0.0	0.0	0.0	0.0	0.01	0.048	
4.0	0.0	0.0	0.0	0.0	0.016	0.077	
5.0	0.0	0.0	0.0	0.0	0.003	0.07	
6.0	0.0	0.0	0.0	0.0	0.013	0.121	
7.0	0.0	0.0	0.0	0.0	0.003	0.096	
8.0	0.0	0.0	0.0	0.0	-0.013	0.089	
9.0	0.0	0.0	0.0	0.0	-0.029	0.121	
10.0	0.0	0.0	0.0	0.0	-0.032	0.115	
11.0	0.0	0.0	0.0	0.0	-0.026	0.102	
12.0	0.0	0.0	0.0	0.0	-0.022	0.093	
13.0	0.0	0.0	0.0	0.0	-0.016	0.061	
14.0	0.0	0.0	0.0	0.0	-0.006	0.048	
15.0	0.0	0.0	0.0	0.0	0.003	0.093	
0.0	0.0	0.0	0.0	0.0	-0.013	0.134	
1.0	0.0	0.0	0.0	0.0	-0.019	0.217	
2.0	0.0	0.0	0.0	0.0	-0.026	0.303	
3.0	0.0	0.0	0.0	0.0	-0.042	0.415	
4.0	0.0	0.0	0.0	0.0	-0.051	0.31	
5.0	0.0	0.0	0.0	0.0	-0.022	-0.316	
6.0	0.0	0.0	0.0	0.0	-0.003	-0.811	
7.0	0.0	0.0	0.0	0.0	0.019	-0.591	
8.0	0.0	0.0	0.0	0.0	0.093	-0.134	
9.0	0.0	0.0	0.0	0.0	0.109	0.137	
10.0	0.0	0.0	0.0	0.0	0.054	0.109	
11.0	0.0	0.0	0.0	0.0	-0.003	-0.128	
12.0	0.0	0.0	0.0	0.0	-0.064	-0.188	
13.0	0.0	0.0	0.0	0.0	-0.07	-0.425	
14.0	0.0	0.0	0.0	0.0	-0.022	-0.485	
15.0	0.0	0.0	0.0	0.0	0.064	-0.064	
0.0	0.0	0.0	0.0	0.0	0.073	0.227	
1.0	0.0	0.0	0.0	0.0	0.038	0.144	
2.0	0.0	0.0	0.0	0.0	0.003	0.038	
3.0	0.0	0.0	0.0	0.0	0.0	0.064	
4.0	0.0	0.0	0.0	0.0	-0.013	0.099	
5.0	0.0	0.0	0.0	0.0	-0.01	0.105	
6.0	0.0	0.0	0.0	0.0	0.01	0.281	
7.0	0.0	0.0	0.0	0.0	0.022	0.438	
8.0	0.0	0.0	0.0	0.0	-0.016	0.313	
9.0	0.0	0.0	0.0	0.0	-0.054	0.355	
10.0	0.0	0.0	0.0	0.0	-0.038	0.335	
11.0	0.0	0.0	0.0	0.0	-0.128	-0.07	
12.0	0.0	0.0	0.0	0.0	-0.163	-0.747	
13.0	0.0	0.0	0.0	0.0	-0.099	-0.687	
14.0	0.0	0.0	0.0	0.0	0.07	-0.374	
15.0	0.0	0.0	0.0	0.0	0.153	0.182	
0.0	0.0	0.0	0.0	0.0	0.157	0.521	
1.0	0.0	0.0	0.0	0.0	0.105	0.505	
2.0	0.0	0.0	0.0	0.0	-0.061	-0.048	
3.0	0.0	0.0	0.0	0.0	-0.118	-0.575	
4.0	0.0	0.0	0.0	0.0	-0.054	-0.77	
5.0	0.0	0.0	0.0	0.0	-0.01	-0.6	
6.0	0.0	0.0	0.0	0.0	0.026	-0.431	
7.0	0.0	0.0	0.0	0.0	0.125	-0.23	
8.0	0.0	0.0	0.0	0.0	0.121	0.032	
9.0	0.0	0.0	0.0	0.0	0.051	0.236	
10.0	0.0	0.0	0.0	0.0	0.013	0.275	
11.0	0.0	0.0	0.0	0.0	-0.013	0.246	
12.0	0.0	0.0	0.0	0.0	-0.026	0.201	
13.0	0.0	0.0	0.0	0.0	-0.029	0.182	
14.0	0.0	0.0	0.0	0.0	-0.022	0.224	
15.0	0.0	0.0	0.0	0.0	-0.032	0.281	
0.0	0.0	0.0	0.0	0.0	-0.042	0.546	
1.0	0.0	0.0	0.0	0.0	-0.013	0.798	
2.0	0.0	0.0	0.0	0.0	-0.032	0.556	
3.0	0.0	0.0	0.0	0.0	-0.08	-0.006	
4.0	0.0	0.0	0.0	0.0	-0.182	-0.837	
5.0	0.0	0.0	0.0	0.0	-0.141	-1.319	
6.0	0.0	0.0	0.0	0.0	0.077	-0.725	
7.0	0.0	0.0	0.0	0.0	0.192	-0.013	
8.0	0.0	0.0	0.0	0.0	0.112	0.3	
9.0	0.0	0.0	0.0	0.0	-0.006	0.013	
10.0	0.0	0.0	0.0	0.0	-0.064	-0.185	
11.0	0.0	0.0	0.0	0.0	-0.026	-0.466	
12.0	0.0	0.0	0.0	0.0	0.07	-0.128	
13.0	0.0	0.0	0.0	0.0	0.093	0.118	
14.0	0.0	0.0	0.0	0.0	0.016	0.252	
15.0	0.0	0.0	0.0	0.0	-0.029	0.144	
0.0	0.0	0.0	0.0	0.0	-0.006	0.211	
1.0	0.0	0.0	0.0	0.0	0.0	0.291	
2.0	0.0	0.0	0.0	0.0	-0.038	0.137	
3.0	0.0	0.0	0.0	0.0	-0.045	0.026	
4.0	0.0	0.0	0.0	0.0	-0.051	-0.125	
5.0	0.0	0.0	0.0	0.0	-0.013	-0.057	
6.0	0.0	0.0	0.0	0.0	0.013	0.022	
7.0	0.0	0.0	0.0	0.0	0.006	-0.125	
8.0	0.0	0.0	0.0	0.0	0.022	-0.125	
9.0	0.0	0.0	0.0	0.0	0.022	-0.048	
10.0	0.0	0.0	0.0	0.0	0.006	-0.08	
11.0	0.0	0.0	0.0	0.0	0.032	-0.08	
12.0	0.0	0.0	0.0	0.0	0.038	0.099	
13.0	0.0	0.0	0.0	0.0	0.026	0.15	
14.0	0.0	0.0	0.0	0.0	-0.035	0.089	
15.0	0.0	0.0	0.0	0.0	-0.093	0.0	
0.0	0.0	0.0	0.0	0.0	-0.045	0.208	
1.0	0.0	0.0	0.0	0.0	-0.029	0.393	
2.0	0.0	0.0	0.0	0.0	-0.032	0.54	
3.0	0.0	0.0	0.0	0.0	-0.048	0.607	
4.0	0.0	0.0	0.0	0.0	-0.042	0.112	
5.0	0.0	0.0	0.0	0.0	-0.048	-0.313	
6.0	0.0	0.0	0.0	0.0	-0.099	-0.987	
7.0	0.0	0.0	0.0	0.0	-0.089	-1.412	
8.0	0.0	0.0	0.0	0.0	0.131	-0.703	
9.0	0.0	0.0	0.0	0.0	0.256	-0.163	
10.0	0.0	0.0	0.0	0.0	0.188	0.131	
11.0	0.0	0.0	0.0	0.0	0.089	0.39	
12.0	0.0	0.0	0.0	0.0	0.0	0.313	
13.0	0.0	0.0	0.0	0.0	-0.07	0.07	
14.0	0.0	0.0	0.0	0.0	-0.093	0.01	
15.0	0.0	0.0	0.0	0.0	-0.073	-0.077	
0.0	0.0	0.0	0.0	0.0	-0.035	0.013	
1.0	0.0	0.0	0.0	0.0	-0.006	0.144	
2.0	0.0	0.0	0.0	0.0	-0.013	0.128	
3.0	0.0	0.0	0.0	0.0	-0.006	0.08	
4.0	0.0	0.0	0.0	0.0	-0.006	0.176	
5.0	0.0	0.0	0.0	0.0	0.016	0.46	
6.0	0.0	0.0	0.0	0.0	0.022	0.91	
7.0	0.0	0.0	0.0	0.0	0.019	0.997	
8.0	0.0	0.0	0.0	0.0	-0.003	0.658	
9.0	0.0	0.0	0.0	0.0	-0.125	0.109	
10.0	0.0	0.0	0.0	0.0	-0.386	-1.527	
11.0	0.0	0.0	0.0	0.0	-0.268	-1.635	
12.0	0.0	0.0	0.0	0.0	0.137	-1.319	
13.0	0.0	0.0	0.0	0.0	0.402	0.144	
14.0	0.0	0.0	0.0	0.0	0.313	0.575	
15.0	0.0	0.0	0.0	0.0	0.099	0.335	
0.0	0.0	0.0	0.0	0.0	-0.003	0.089	
1.0	0.0	0.0	0.0	0.0	-0.003	0.01	
2.0	0.0	0.0	0.0	0.0	-0.026	-0.045	
3.0	0.0	0.0	0.0	0.0	-0.026	0.086	
4.0	0.0	0.0	0.0	0.0	-0.029	0.15	
5.0	0.0	0.0	0.0	0.0	-0.006	-0.026	
6.0	0.0	0.0	0.0	0.0	-0.003	-0.118	
7.0	0.0	0.0	0.0	0.0	-0.003	-0.042	
8.0	0.0	0.0	0.0	0.0	-0.003	0.073	
9.0	0.0	0.0	0.0	0.0	-0.022	0.125	
10.0	0.0	0.0	0.0	0.0	-0.035	0.125	
11.0	0.0	0.0	0.0	0.0	-0.022	0.096	
12.0	0.0	0.0	0.0	0.0	-0.032	0.08	
13.0	0.0	0.0	0.0	0.0	-0.029	0.093	
14.0	0.0	0.0	0.0	0.0	-0.013	0.147	
15.0	0.0	0.0	0.0	0.0	0.0	0.431	
0.0	0.0	0.0	0.0	0.0	0.0	0.578	
1.0	0.0	0.0	0.0	0.0	-0.003	0.47	
2.0	0.0	0.0	0.0	0.0	-0.019	0.454	
3.0	0.0	0.0	0.0	0.0	-0.176	-0.182	
4.0	0.0	0.0	0.0	0.0	-0.287	-0.501	
5.0	0.0	0.0	0.0	0.0	-0.01	-0.683	
6.0	0.0	0.0	0.0	0.0	0.08	-0.77	
7.0	0.0	0.0	0.0	0.0	0.01	-0.543	
8.0	0.0	0.0	0.0	0.0	0.051	-0.553	
9.0	0.0	0.0	0.0	0.0	0.172	-0.243	
10.0	0.0	0.0	0.0	0.0	0.217	0.086	
11.0	0.0	0.0	0.0	0.0	0.166	0.166	
12.0	0.0	0.0	0.0	0.0	0.077	0.096	
13.0	0.0	0.0	0.0	0.0	0.019	0.179	
14.0	0.0	0.0	0.0	0.0	-0.026	0.032	
15.0	0.0	0.0	0.0	0.0	-0.032	-0.08	
0.0	0.0	0.0	0.0	0.0	-0.032	-0.048	
1.0	0.0	0.0	0.0	0.0	-0.019	0.061	
2.0	0.0	0.0	0.0	0.0	-0.029	0.179	
3.0	0.0	0.0	0.0	0.0	-0.051	0.192	
4.0	0.0	0.0	0.0	0.0	-0.051	0.281	
5.0	0.0	0.0	0.0	0.0	-0.057	0.256	
6.0	0.0	0.0	0.0	0.0	-0.042	0.24	
7.0	0.0	0.0	0.0	0.0	-0.003	0.281	
8.0	0.0	0.0	0.0	0.0	0.01	0.316	
9.0	0.0	0.0	0.0	0.0	0.022	0.31	
10.0	0.0	0.0	0.0	0.0	0.048	0.31	
11.0	0.0	0.0	0.0	0.0	-0.042	-0.032	
12.0	0.0	0.0	0.0	0.0	-0.224	-0.463	
13.0	0.0	0.0	0.0	0.0	-0.243	-0.789	
14.0	0.0	0.0	0.0	0.0	0.0	-0.843	
15.0	0.0	0.0	0.0	0.0	0.172	-0.556	
0.0	0.0	0.0	0.0	0.0	0.141	-0.08	
1.0	0.0	0.0	0.0	0.0	0.089	0.0	
2.0	0.0	0.0	0.0	0.0	0.112	-0.332	
3.0	0.0	0.0	0.0	0.0	0.125	-0.358	
4.0	0.0	0.0	0.0	0.0	0.112	0.16	
5.0	0.0	0.0	0.0	0.0	0.054	0.511	
6.0	0.0	0.0	0.0	0.0	-0.003	0.466	
7.0	0.0	0.0	0.0	0.0	-0.045	0.294	
8.0	0.0	0.0	0.0	0.0	-0.093	0.096	
9.0	0.0	0.0	0.0	0.0	-0.153	-0.284	
10.0	0.0	0.0	0.0	0.0	-0.109	-0.482	
11.0	0.0	0.0	0.0	0.0	-0.016	-0.287	
12.0	0.0	0.0	0.0	0.0	0.022	-0.035	
13.0	0.0	0.0	0.0	0.0	0.016	0.112	
14.0	0.0	0.0	0.0	0.0	-0.019	0.256	
15.0	0.0	0.0	0.0	0.0	-0.026	0.303	
0.0	0.0	0.0	0.0	0.0	-0.026	0.438	
1.0	0.0	0.0	0.0	0.0	-0.013	0.738	
2.0	0.0	0.0	0.0	0.0	-0.01	0.738	
3.0	0.0	0.0	0.0	0.0	-0.042	0.409	
4.0	0.0	0.0	0.0	0.0	-0.089	0.208	
5.0	0.0	0.0	0.0	0.0	-0.163	-0.364	
6.0	0.0	0.0	0.0	0.0	-0.128	-1.044	
7.0	0.0	0.0	0.0	0.0	0.029	-1.29	
8.0	0.0	0.0	0.0	0.0	0.259	-0.54	
9.0	0.0	0.0	0.0	0.0	0.252	-0.003	
10.0	0.0	0.0	0.0	0.0	0.099	-0.026	
11.0	0.0	0.0	0.0	0.0	0.073	-0.102	
12.0	0.0	0.0	0.0	0.0	0.051	-0.214	
13.0	0.0	0.0	0.0	0.0	0.026	-0.243	
14.0	0.0	0.0	0.0	0.0	0.019	-0.118	
15.0	0.0	0.0	0.0	0.0	0.026	0.112	
0.0	0.0	0.0	0.0	0.0	0.019	0.422	
1.0	0.0	0.0	0.0	0.0	-0.01	0.422	
2.0	0.0	0.0	0.0	0.0	-0.054	0.224	
3.0	0.0	0.0	0.0	0.0	-0.112	0.176	
4.0	0.0	0.0	0.0	0.0	-0.131	-0.08	
5.0	0.0	0.0	0.0	0.0	-0.128	-0.415	
6.0	0.0	0.0	0.0	0.0	-0.089	-0.406	
7.0	0.0	0.0	0.0	0.0	0.026	-0.07	
8.0	0.0	0.0	0.0	0.0	0.073	0.501	
9.0	0.0	0.0	0.0	0.0	0.029	0.668	
10.0	0.0	0.0	0.0	0.0	-0.006	0.607	
11.0	0.0	0.0	0.0	0.0	-0.042	0.386	
12.0	0.0	0.0	0.0	0.0	-0.128	0.061	
13.0	0.0	0.0	0.0	0.0	-0.137	-0.246	
14.0	0.0	0.0	0.0	0.0	-0.102	-0.508	
15.0	0.0	0.0	0.0	0.0	0.0	-0.501	
0.0	0.0	0.0	0.0	0.0	0.169	-0.454	
1.0	0.0	0.0	0.0	0.0	0.166	-0.093	
2.0	0.0	0.0	0.0	0.0	0.048	-0.026	
3.0	0.0	0.0	0.0	0.0	0.022	-0.428	
4.0	0.0	0.0	0.0	0.0	0.073	-0.476	
5.0	0.0	0.0	0.0	0.0	0.086	-0.134	
6.0	0.0	0.0	0.0	0.0	0.048	0.102	
7.0	0.0	0.0	0.0	0.0	0.013	0.316	
8.0	0.0	0.0	0.0	0.0	-0.038	0.457	
9.0	0.0	0.0	0.0	0.0	-0.054	0.415	
10.0	0.0	0.0	0.0	0.0	-0.073	0.268	
11.0	0.0	0.0	0.0	0.0	-0.064	0.192	
12.0	0.0	0.0	0.0	0.0	-0.083	-0.141	
13.0	0.0	0.0	0.0	0.0	-0.067	-0.533	
14.0	0.0	0.0	0.0	0.0	0.054	-0.307	
15.0	0.0	0.0	0.0	0.0	0.105	-0.019	
0.0	0.0	0.0	0.0	0.0	0.086	0.099	
1.0	0.0	0.0	0.0	0.0	0.045	0.042	
2.0	0.0	0.0	0.0	0.0	-0.013	-0.271	
3.0	0.0	0.0	0.0	0.0	-0.048	-0.233	
4.0	0.0	0.0	0.0	0.0	0.029	0.319	
5.0	0.0	0.0	0.0	0.0	0.003	0.444	
6.0	0.0	0.0	0.0	0.0	-0.057	0.597	
7.0	0.0	0.0	0.0	0.0	-0.102	0.862	
8.0	0.0	0.0	0.0	0.0	-0.083	0.728	
9.0	0.0	0.0	0.0	0.0	0.0	0.086	
10.0	0.0	0.0	0.0	0.0	-0.003	-0.342	
11.0	0.0	0.0	0.0	0.0	-0.214	-0.517	
12.0	0.0	0.0	0.0	0.0	-0.24	-1.635	
13.0	0.0	0.0	0.0	0.0	0.089	-1.635	
14.0	0.0	0.0	0.0	0.0	0.313	-0.543	
15.0	0.0	0.0	0.0	0.0	0.335	0.399	
0.0	0.0	0.0	0.0	0.0	0.179	0.594	
1.0	0.0	0.0	0.0	0.0	0.032	0.597	
2.0	0.0	0.0	0.0	0.0	-0.045	0.699	
3.0	0.0	0.0	0.0	0.0	-0.093	0.693	
4.0	0.0	0.0	0.0	0.0	-0.096	0.569	
5.0	0.0	0.0	0.0	0.0	-0.102	0.351	
6.0	0.0	0.0	0.0	0.0	-0.115	-0.006	
7.0	0.0	0.0	0.0	0.0	-0.131	-0.479	
8.0	0.0	0.0	0.0	0.0	-0.08	-0.92	
9.0	0.0	0.0	0.0	0.0	0.022	-0.683	
10.0	0.0	0.0	0.0	0.0	0.093	-0.271	
11.0	0.0	0.0	0.0	0.0	0.112	0.038	
12.0	0.0	0.0	0.0	0.0	0.057	0.265	
13.0	0.0	0.0	0.0	0.0	0.0	0.201	
14.0	0.0	0.0	0.0	0.0	-0.013	0.227	
15.0	0.0	0.0	0.0	0.0	0.01	0.374	
0.0	0.0	0.0	0.0	0.0	0.026	0.505	
1.0	0.0	0.0	0.0	0.0	0.022	0.68	
2.0	0.0	0.0	0.0	0.0	-0.051	0.607	
3.0	0.0	0.0	0.0	0.0	-0.105	0.249	
4.0	0.0	0.0	0.0	0.0	-0.083	-0.332	
5.0	0.0	0.0	0.0	0.0	-0.08	-1.051	
6.0	0.0	0.0	0.0	0.0	-0.003	-0.731	
7.0	0.0	0.0	0.0	0.0	0.026	-0.706	
8.0	0.0	0.0	0.0	0.0	0.083	-0.339	
9.0	0.0	0.0	0.0	0.0	0.15	-0.013	
10.0	0.0	0.0	0.0	0.0	0.125	0.144	
11.0	0.0	0.0	0.0	0.0	0.051	0.105	
12.0	0.0	0.0	0.0	0.0	-0.013	0.147	
13.0	0.0	0.0	0.0	0.0	-0.035	0.121	
14.0	0.0	0.0	0.0	0.0	-0.038	-0.032	
15.0	0.0	0.0	0.0	0.0	-0.051	0.061	
0.0	0.0	0.0	0.0	0.0	-0.048	0.227	
1.0	0.0	0.0	0.0	0.0	-0.064	0.23	
2.0	0.0	0.0	0.0	0.0	-0.051	0.064	
3.0	0.0	0.0	0.0	0.0	-0.022	0.134	
4.0	0.0	0.0	0.0	0.0	-0.01	0.313	
5.0	0.0	0.0	0.0	0.0	-0.003	0.329	
6.0	0.0	0.0	0.0	0.0	0.032	0.351	
7.0	0.0	0.0	0.0	0.0	0.035	0.319	
8.0	0.0	0.0	0.0	0.0	-0.057	0.096	
9.0	0.0	0.0	0.0	0.0	-0.121	-0.489	
10.0	0.0	0.0	0.0	0.0	-0.051	-0.853	
11.0	0.0	0.0	0.0	0.0	0.013	-1.035	
12.0	0.0	0.0	0.0	0.0	0.099	-0.997	
13.0	0.0	0.0	0.0	0.0	0.166	-0.454	
14.0	0.0	0.0	0.0	0.0	0.195	0.278	
15.0	0.0	0.0	0.0	0.0	0.121	0.454	
0.0	0.0	0.0	0.0	0.0	0.029	0.31	
1.0	0.0	0.0	0.0	0.0	-0.035	0.23	
2.0	0.0	0.0	0.0	0.0	-0.08	-0.054	
3.0	0.0	0.0	0.0	0.0	-0.086	-0.118	
4.0	0.0	0.0	0.0	0.0	-0.064	0.045	
5.0	0.0	0.0	0.0	0.0	0.032	0.192	
6.0	0.0	0.0	0.0	0.0	0.048	0.281	
7.0	0.0	0.0	0.0	0.0	0.013	0.45	
8.0	0.0	0.0	0.0	0.0	-0.01	0.668	
9.0	0.0	0.0	0.0	0.0	-0.051	0.632	
10.0	0.0	0.0	0.0	0.0	-0.089	0.278	
11.0	0.0	0.0	0.0	0.0	-0.23	-0.045	
12.0	0.0	0.0	0.0	0.0	-0.188	-0.476	
13.0	0.0	0.0	0.0	0.0	-0.067	-0.917	
14.0	0.0	0.0	0.0	0.0	0.054	-0.83	
15.0	0.0	0.0	0.0	0.0	0.236	-0.051	
0.0	0.0	0.0	0.0	0.0	0.256	0.313	
1.0	0.0	0.0	0.0	0.0	0.08	-0.093	
2.0	0.0	0.0	0.0	0.0	0.016	-0.489	
3.0	0.0	0.0	0.0	0.0	0.038	-0.243	
4.0	0.0	0.0	0.0	0.0	0.019	0.061	
5.0	0.0	0.0	0.0	0.0	0.019	0.22	
6.0	0.0	0.0	0.0	0.0	0.003	-0.032	
7.0	0.0	0.0	0.0	0.0	-0.026	-0.172	
8.0	0.0	0.0	0.0	0.0	-0.067	-0.045	
9.0	0.0	0.0	0.0	0.0	-0.083	0.026	
10.0	0.0	0.0	0.0	0.0	-0.102	-0.054	
11.0	0.0	0.0	0.0	0.0	-0.089	-0.109	
12.0	0.0	0.0	0.0	0.0	-0.07	-0.157	
13.0	0.0	0.0	0.0	0.0	-0.026	-0.08	
14.0	0.0	0.0	0.0	0.0	-0.006	0.0	
15.0	0.0	0.0	0.0	0.0	0.003	0.038	
0.0	0.0	0.0	0.0	0.0	0.006	0.109	
1.0	0.0	0.0	0.0	0.0	0.006	0.319	
2.0	0.0	0.0	0.0	0.0	0.01	0.473	
3.0	0.0	0.0	0.0	0.0	0.016	0.521	
4.0	0.0	0.0	0.0	0.0	-0.006	0.827	
5.0	0.0	0.0	0.0	0.0	-0.045	0.834	
6.0	0.0	0.0	0.0	0.0	-0.128	0.584	
7.0	0.0	0.0	0.0	0.0	-0.077	0.192	
8.0	0.0	0.0	0.0	0.0	-0.077	-0.406	
9.0	0.0	0.0	0.0	0.0	-0.217	-1.252	
10.0	0.0	0.0	0.0	0.0	-0.172	-1.635	
11.0	0.0	0.0	0.0	0.0	0.198	-1.635	
12.0	0.0	0.0	0.0	0.0	0.479	-0.425	
13.0	0.0	0.0	0.0	0.0	0.457	0.361	
14.0	0.0	0.0	0.0	0.0	0.249	0.434	
15.0	0.0	0.0	0.0	0.0	0.073	0.367	
0.0	0.0	0.0	0.0	0.0	0.0	0.492	
1.0	0.0	0.0	0.0	0.0	-0.045	0.485	
2.0	0.0	0.0	0.0	0.0	-0.099	0.402	
3.0	0.0	0.0	0.0	0.0	-0.115	0.348	
4.0	0.0	0.0	0.0	0.0	-0.118	0.492	
5.0	0.0	0.0	0.0	0.0	-0.128	0.594	
6.0	0.0	0.0	0.0	0.0	-0.109	0.569	
7.0	0.0	0.0	0.0	0.0	-0.048	0.326	
8.0	0.0	0.0	0.0	0.0	-0.061	0.271	
9.0	0.0	0.0	0.0	0.0	-0.198	-0.348	
10.0	0.0	0.0	0.0	0.0	-0.214	-1.635	
11.0	0.0	0.0	0.0	0.0	0.0	-1.319	
12.0	0.0	0.0	0.0	0.0	0.204	-0.137	
13.0	0.0	0.0	0.0	0.0	0.204	0.6	
14.0	0.0	0.0	0.0	0.0	0.086	0.463	
15.0	0.0	0.0	0.0	0.0	-0.01	-0.268	
0.0	0.0	0.0	0.0	0.0	0.0	-0.134	
1.0	0.0	0.0	0.0	0.0	0.038	0.208	
2.0	0.0	0.0	0.0	0.0	0.07	0.026	
3.0	0.0	0.0	0.0	0.0	0.105	0.077	
4.0	0.0	0.0	0.0	0.0	0.051	0.23	
5.0	0.0	0.0	0.0	0.0	-0.057	0.134	
6.0	0.0	0.0	0.0	0.0	-0.153	-0.214	
7.0	0.0	0.0	0.0	0.0	-0.099	-0.6	
8.0	0.0	0.0	0.0	0.0	-0.016	-0.431	
9.0	0.0	0.0	0.0	0.0	0.067	-0.035	
10.0	0.0	0.0	0.0	0.0	0.048	0.31	
11.0	0.0	0.0	0.0	0.0	0.006	0.275	
12.0	0.0	0.0	0.0	0.0	-0.019	0.169	
13.0	0.0	0.0	0.0	0.0	-0.003	0.243	
14.0	0.0	0.0	0.0	0.0	-0.035	0.252	
15.0	0.0	0.0	0.0	0.0	-0.064	0.406	
0.0	0.0	0.0	0.0	0.0	-0.102	0.22	
1.0	0.0	0.0	0.0	0.0	-0.125	-0.115	
2.0	0.0	0.0	0.0	0.0	-0.048	-0.505	
3.0	0.0	0.0	0.0	0.0	0.057	-0.45	
4.0	0.0	0.0	0.0	0.0	0.144	0.057	
5.0	0.0	0.0	0.0	0.0	0.099	0.038	
6.0	0.0	0.0	0.0	0.0	-0.013	-0.345	
7.0	0.0	0.0	0.0	0.0	-0.054	-0.233	
8.0	0.0	0.0	0.0	0.0	-0.061	0.099	
9.0	0.0	0.0	0.0	0.0	-0.08	-0.192	
10.0	0.0	0.0	0.0	0.0	-0.006	-0.39	
11.0	0.0	0.0	0.0	0.0	0.096	-0.125	
12.0	0.0	0.0	0.0	0.0	0.112	0.086	
13.0	0.0	0.0	0.0	0.0	0.077	0.134	
14.0	0.0	0.0	0.0	0.0	0.086	0.07	
15.0	0.0	0.0	0.0	0.0	0.061	0.048	
0.0	0.0	0.0	0.0	0.0	0.035	0.243	
1.0	0.0	0.0	0.0	0.0	0.006	0.447	
2.0	0.0	0.0	0.0	0.0	-0.032	0.559	
3.0	0.0	0.0	0.0	0.0	-0.057	0.406	
4.0	0.0	0.0	0.0	0.0	-0.089	0.386	
5.0	0.0	0.0	0.0	0.0	-0.083	0.217	
6.0	0.0	0.0	0.0	0.0	-0.128	-0.089	
7.0	0.0	0.0	0.0	0.0	-0.128	-0.69	
8.0	0.0	0.0	0.0	0.0	-0.038	-0.872	
9.0	0.0	0.0	0.0	0.0	0.048	-0.533	
10.0	0.0	0.0	0.0	0.0	0.131	-0.489	
11.0	0.0	0.0	0.0	0.0	0.15	-0.3	
12.0	0.0	0.0	0.0	0.0	0.105	-0.118	
13.0	0.0	0.0	0.0	0.0	0.026	-0.038	
14.0	0.0	0.0	0.0	0.0	-0.026	0.166	
15.0	0.0	0.0	0.0	0.0	-0.057	0.316	
0.0	0.0	0.0	0.0	0.0	-0.054	0.431	
1.0	0.0	0.0	0.0	0.0	-0.042	0.37	
2.0	0.0	0.0	0.0	0.0	-0.073	0.377	
3.0	0.0	0.0	0.0	0.0	-0.089	0.418	
4.0	0.0	0.0	0.0	0.0	-0.067	0.396	
5.0	0.0	0.0	0.0	0.0	-0.08	0.211	
6.0	0.0	0.0	0.0	0.0	-0.089	-0.457	
7.0	0.0	0.0	0.0	0.0	-0.064	-0.837	
8.0	0.0	0.0	0.0	0.0	-0.01	-1.083	
9.0	0.0	0.0	0.0	0.0	0.077	-1.147	
10.0	0.0	0.0	0.0	0.0	0.24	-0.47	
11.0	0.0	0.0	0.0	0.0	0.265	0.355	
12.0	0.0	0.0	0.0	0.0	0.201	0.76	
13.0	0.0	0.0	0.0	0.0	0.08	0.722	
14.0	0.0	0.0	0.0	0.0	-0.019	0.565	
15.0	0.0	0.0	0.0	0.0	-0.093	0.22	
0.0	0.0	0.0	0.0	0.0	-0.112	-0.188	
1.0	0.0	0.0	0.0	0.0	-0.147	-0.163	
2.0	0.0	0.0	0.0	0.0	-0.128	-0.23	
3.0	0.0	0.0	0.0	0.0	-0.016	-0.188	
4.0	0.0	0.0	0.0	0.0	0.016	-0.019	
5.0	0.0	0.0	0.0	0.0	0.013	0.042	
6.0	0.0	0.0	0.0	0.0	0.01	0.089	
7.0	0.0	0.0	0.0	0.0	0.026	-0.01	
8.0	0.0	0.0	0.0	0.0	0.042	-0.029	
9.0	0.0	0.0	0.0	0.0	0.048	0.422	
10.0	0.0	0.0	0.0	0.0	0.051	0.856	
11.0	0.0	0.0	0.0	0.0	0.045	0.818	
12.0	0.0	0.0	0.0	0.0	-0.022	0.54	
13.0	0.0	0.0	0.0	0.0	-0.15	0.169	
14.0	0.0	0.0	0.0	0.0	-0.393	-0.517	
15.0	0.0	0.0	0.0	0.0	-0.361	-1.635	
0.0	0.0	0.0	0.0	0.0	0.0	-1.635	
1.0	0.0	0.0	0.0	0.0	0.31	-0.747	
2.0	0.0	0.0	0.0	0.0	0.406	0.386	
3.0	0.0	0.0	0.0	0.0	0.329	0.668	
4.0	0.0	0.0	0.0	0.0	0.179	0.447	
5.0	0.0	0.0	0.0	0.0	0.006	0.224	
6.0	0.0	0.0	0.0	0.0	-0.109	0.006	
7.0	0.0	0.0	0.0	0.0	-0.15	-0.329	
8.0	0.0	0.0	0.0	0.0	-0.067	-0.115	
9.0	0.0	0.0	0.0	0.0	-0.003	0.188	
10.0	0.0	0.0	0.0	0.0	-0.003	0.307	
11.0	0.0	0.0	0.0	0.0	-0.013	0.537	
12.0	0.0	0.0	0.0	0.0	-0.022	0.671	
13.0	0.0	0.0	0.0	0.0	-0.048	0.562	
14.0	0.0	0.0	0.0	0.0	-0.077	0.332	
15.0	0.0	0.0	0.0	0.0	-0.083	0.121	
0.0	0.0	0.0	0.0	0.0	-0.128	-0.246	
1.0	0.0	0.0	0.0	0.0	-0.224	-0.92	
2.0	0.0	0.0	0.0	0.0	-0.115	-1.294	
3.0	0.0	0.0	0.0	0.0	0.163	-0.808	
4.0	0.0	0.0	0.0	0.0	0.303	-0.198	
5.0	0.0	0.0	0.0	0.0	0.259	0.297	
6.0	0.0	0.0	0.0	0.0	0.102	0.431	
7.0	0.0	0.0	0.0	0.0	-0.042	0.351	
8.0	0.0	0.0	0.0	0.0	-0.048	0.364	
9.0	0.0	0.0	0.0	0.0	-0.077	0.243	
10.0	0.0	0.0	0.0	0.0	-0.099	0.163	
11.0	0.0	0.0	0.0	0.0	-0.118	-0.211	
12.0	0.0	0.0	0.0	0.0	-0.102	-0.565	
13.0	0.0	0.0	0.0	0.0	-0.064	-0.645	
14.0	0.0	0.0	0.0	0.0	0.045	-0.307	
15.0	0.0	0.0	0.0	0.0	0.064	0.112	
0.0	0.0	0.0	0.0	0.0	0.032	0.265	
1.0	0.0	0.0	0.0	0.0	0.022	0.345	
2.0	0.0	0.0	0.0	0.0	0.029	0.252	
3.0	0.0	0.0	0.0	0.0	0.016	0.035	
4.0	0.0	0.0	0.0	0.0	-0.019	-0.208	
5.0	0.0	0.0	0.0	0.0	0.045	0.089	
6.0	0.0	0.0	0.0	0.0	0.131	0.447	
7.0	0.0	0.0	0.0	0.0	0.121	0.652	
8.0	0.0	0.0	0.0	0.0	0.054	0.993	
9.0	0.0	0.0	0.0	0.0	-0.083	0.792	
10.0	0.0	0.0	0.0	0.0	-0.141	-0.198	
11.0	0.0	0.0	0.0	0.0	-0.022	-0.182	
12.0	0.0	0.0	0.0	0.0	-0.073	0.029	
13.0	0.0	0.0	0.0	0.0	-0.284	-0.869	
14.0	0.0	0.0	0.0	0.0	-0.265	-1.635	
15.0	0.0	0.0	0.0	0.0	0.035	-1.635	
0.0	0.0	0.0	0.0	0.0	0.278	-0.358	
1.0	0.0	0.0	0.0	0.0	0.342	0.22	
2.0	0.0	0.0	0.0	0.0	0.224	0.377	
3.0	0.0	0.0	0.0	0.0	0.051	0.495	
4.0	0.0	0.0	0.0	0.0	-0.042	0.428	
5.0	0.0	0.0	0.0	0.0	-0.064	0.351	
6.0	0.0	0.0	0.0	0.0	-0.083	0.377	
7.0	0.0	0.0	0.0	0.0	-0.08	0.508	
8.0	0.0	0.0	0.0	0.0	-0.073	0.335	
9.0	0.0	0.0	0.0	0.0	-0.08	-0.144	
10.0	0.0	0.0	0.0	0.0	-0.093	-0.54	
11.0	0.0	0.0	0.0	0.0	-0.089	-0.674	
12.0	0.0	0.0	0.0	0.0	-0.073	-0.814	
13.0	0.0	0.0	0.0	0.0	0.0	-0.747	
14.0	0.0	0.0	0.0	0.0	0.086	-0.077	
15.0	0.0	0.0	0.0	0.0	0.153	0.454	
0.0	0.0	0.0	0.0	0.0	0.163	0.703	
1.0	0.0	0.0	0.0	0.0	0.064	0.648	
2.0	0.0	0.0	0.0	0.0	-0.019	0.492	
3.0	0.0	0.0	0.0	0.0	-0.038	0.556	
4.0	0.0	0.0	0.0	0.0	-0.093	0.351	
5.0	0.0	0.0	0.0	0.0	-0.08	-0.003	
6.0	0.0	0.0	0.0	0.0	0.003	-0.026	
7.0	0.0	0.0	0.0	0.0	0.01	-0.102	
8.0	0.0	0.0	0.0	0.0	-0.038	-0.195	
9.0	0.0	0.0	0.0	0.0	-0.048	-0.182	
10.0	0.0	0.0	0.0	0.0	0.0	0.118	
11.0	0.0	0.0	0.0	0.0	0.105	0.46	
12.0	0.0	0.0	0.0	0.0	0.118	0.479	
13.0	0.0	0.0	0.0	0.0	0.01	0.099	
14.0	0.0	0.0	0.0	0.0	-0.134	-0.613	
15.0	0.0	0.0	0.0	0.0	-0.179	-1.274	
0.0	0.0	0.0	0.0	0.0	-0.089	-1.447	
1.0	0.0	0.0	0.0	0.0	0.019	-0.894	
2.0	0.0	0.0	0.0	0.0	0.141	0.003	
3.0	0.0	0.0	0.0	0.0	0.172	0.386	
4.0	0.0	0.0	0.0	0.0	0.083	0.342	
5.0	0.0	0.0	0.0	0.0	-0.003	0.243	
6.0	0.0	0.0	0.0	0.0	-0.089	-0.042	
7.0	0.0	0.0	0.0	0.0	-0.057	-0.006	
8.0	0.0	0.0	0.0	0.0	0.013	0.112	
9.0	0.0	0.0	0.0	0.0	0.019	0.291	
10.0	0.0	0.0	0.0	0.0	-0.003	0.307	
11.0	0.0	0.0	0.0	0.0	0.013	0.112	
12.0	0.0	0.0	0.0	0.0	0.032	0.022	
13.0	0.0	0.0	0.0	0.0	0.003	0.15	
14.0	0.0	0.0	0.0	0.0	-0.054	0.214	
15.0	0.0	0.0	0.0	0.0	-0.077	0.259	
0.0	0.0	0.0	0.0	0.0	-0.077	0.294	
1.0	0.0	0.0	0.0	0.0	-0.073	0.367	
2.0	0.0	0.0	0.0	0.0	-0.022	0.489	
3.0	0.0	0.0	0.0	0.0	0.006	0.543	
4.0	0.0	0.0	0.0	0.0	0.048	0.591	
5.0	0.0	0.0	0.0	0.0	-0.003	0.316	
6.0	0.0	0.0	0.0	0.0	-0.067	-0.134	
7.0	0.0	0.0	0.0	0.0	-0.121	-0.476	
8.0	0.0	0.0	0.0	0.0	-0.144	-1.009	
9.0	0.0	0.0	0.0	0.0	-0.125	-1.428	
10.0	0.0	0.0	0.0	0.0	0.0	-1.514	
11.0	0.0	0.0	0.0	0.0	0.185	-0.575	
12.0	0.0	0.0	0.0	0.0	0.287	-0.131	
13.0	0.0	0.0	0.0	0.0	0.252	-0.032	
14.0	0.0	0.0	0.0	0.0	0.188	0.176	
15.0	0.0	0.0	0.0	0.0	0.102	0.454	
0.0	0.0	0.0	0.0	0.0	0.061	0.783	
1.0	0.0	0.0	0.0	0.0	0.016	0.917	
2.0	0.0	0.0	0.0	0.0	-0.054	0.69	
3.0	0.0	0.0	0.0	0.0	-0.109	0.367	
4.0	0.0	0.0	0.0	0.0	-0.246	-0.182	
5.0	0.0	0.0	0.0	0.0	-0.233	-0.824	
6.0	0.0	0.0	0.0	0.0	-0.042	-1.012	
7.0	0.0	0.0	0.0	0.0	0.035	-0.91	
8.0	0.0	0.0	0.0	0.0	0.109	-0.319	
9.0	0.0	0.0	0.0	0.0	0.112	0.236	
10.0	0.0	0.0	0.0	0.0	0.051	0.524	
11.0	0.0	0.0	0.0	0.0	-0.019	0.62	
12.0	0.0	0.0	0.0	0.0	-0.102	0.46	
13.0	0.0	0.0	0.0	0.0	-0.08	0.287	
14.0	0.0	0.0	0.0	0.0	-0.038	0.227	
15.0	0.0	0.0	0.0	0.0	-0.083	0.022	
0.0	0.0	0.0	0.0	0.0	-0.144	-0.505	
1.0	0.0	0.0	0.0	0.0	-0.07	-0.85	
2.0	0.0	0.0	0.0	0.0	0.042	-0.655	
3.0	0.0	0.0	0.0	0.0	0.115	-0.246	
4.0	0.0	0.0	0.0	0.0	0.141	0.125	
5.0	0.0	0.0	0.0	0.0	0.115	0.412	
6.0	0.0	0.0	0.0	0.0	0.061	0.418	
7.0	0.0	0.0	0.0	0.0	0.019	0.447	
8.0	0.0	0.0	0.0	0.0	-0.013	0.562	
9.0	0.0	0.0	0.0	0.0	-0.061	0.479	
10.0	0.0	0.0	0.0	0.0	-0.07	0.208	
11.0	0.0	0.0	0.0	0.0	-0.089	0.042	
12.0	0.0	0.0	0.0	0.0	-0.144	0.01	
13.0	0.0	0.0	0.0	0.0	-0.141	-0.652	
14.0	0.0	0.0	0.0	0.0	-0.045	-1.041	
15.0	0.0	0.0	0.0	0.0	0.096	-0.913	
0.0	0.0	0.0	0.0	0.0	0.22	-0.485	
1.0	0.0	0.0	0.0	0.0	0.259	0.086	
2.0	0.0	0.0	0.0	0.0	0.182	0.37	
3.0	0.0	0.0	0.0	0.0	0.08	0.396	
4.0	0.0	0.0	0.0	0.0	-0.035	0.3	
5.0	0.0	0.0	0.0	0.0	-0.109	0.22	
6.0	0.0	0.0	0.0	0.0	-0.131	0.176	
7.0	0.0	0.0	0.0	0.0	-0.137	0.128	
8.0	0.0	0.0	0.0	0.0	-0.144	0.105	
9.0	0.0	0.0	0.0	0.0	-0.096	0.067	
10.0	0.0	0.0	0.0	0.0	-0.003	0.073	
11.0	0.0	0.0	0.0	0.0	0.048	0.249	
12.0	0.0	0.0	0.0	0.0	0.077	0.262	
13.0	0.0	0.0	0.0	0.0	0.086	0.166	
14.0	0.0	0.0	0.0	0.0	0.089	0.128	
15.0	0.0	0.0	0.0	0.0	0.003	0.035	
0.0	0.0	0.0	0.0	0.0	-0.102	0.054	
1.0	0.0	0.0	0.0	0.0	-0.086	-0.166	
2.0	0.0	0.0	0.0	0.0	-0.006	-0.003	
3.0	0.0	0.0	0.0	0.0	-0.013	0.345	
4.0	0.0	0.0	0.0	0.0	0.038	0.115	
5.0	0.0	0.0	0.0	0.0	0.073	0.022	
6.0	0.0	0.0	0.0	0.0	0.016	-0.121	
7.0	0.0	0.0	0.0	0.0	-0.093	-0.54	
8.0	0.0	0.0	0.0	0.0	-0.131	-0.738	
9.0	0.0	0.0	0.0	0.0	-0.029	-0.485	
10.0	0.0	0.0	0.0	0.0	0.019	-0.201	
11.0	0.0	0.0	0.0	0.0	0.013	-0.188	
12.0	0.0	0.0	0.0	0.0	-0.003	-0.089	
13.0	0.0	0.0	0.0	0.0	-0.042	-0.517	
14.0	0.0	0.0	0.0	0.0	-0.013	-0.399	
15.0	0.0	0.0	0.0	0.0	0.035	-0.243	
0.0	0.0	0.0	0.0	0.0	0.105	-0.192	
1.0	0.0	0.0	0.0	0.0	0.144	-0.115	
2.0	0.0	0.0	0.0	0.0	0.147	0.163	
3.0	0.0	0.0	0.0	0.0	0.073	0.31	
4.0	0.0	0.0	0.0	0.0	-0.016	0.418	
5.0	0.0	0.0	0.0	0.0	-0.096	0.6	
6.0	0.0	0.0	0.0	0.0	-0.121	0.636	
7.0	0.0	0.0	0.0	0.0	-0.134	0.709	
8.0	0.0	0.0	0.0	0.0	-0.105	0.501	
9.0	0.0	0.0	0.0	0.0	-0.112	0.051	
10.0	0.0	0.0	0.0	0.0	-0.141	-0.987	
11.0	0.0	0.0	0.0	0.0	0.029	-1.233	
12.0	0.0	0.0	0.0	0.0	0.182	-0.553	
13.0	0.0	0.0	0.0	0.0	0.214	0.125	
14.0	0.0	0.0	0.0	0.0	0.153	0.412	
15.0	0.0	0.0	0.0	0.0	0.105	0.345	
0.0	0.0	0.0	0.0	0.0	0.064	0.45	
1.0	0.0	0.0	0.0	0.0	-0.035	0.428	
2.0	0.0	0.0	0.0	0.0	-0.109	0.089	
3.0	0.0	0.0	0.0	0.0	-0.089	-0.329	
4.0	0.0	0.0	0.0	0.0	-0.057	-0.386	
5.0	0.0	0.0	0.0	0.0	-0.096	-0.588	
6.0	0.0	0.0	0.0	0.0	-0.042	-0.642	
7.0	0.0	0.0	0.0	0.0	0.026	-0.393	
8.0	0.0	0.0	0.0	0.0	0.061	0.029	
9.0	0.0	0.0	0.0	0.0	0.112	0.335	
10.0	0.0	0.0	0.0	0.0	0.099	0.361	
11.0	0.0	0.0	0.0	0.0	-0.01	0.294	
12.0	0.0	0.0	0.0	0.0	-0.144	-0.029	
13.0	0.0	0.0	0.0	0.0	-0.115	-0.607	
14.0	0.0	0.0	0.0	0.0	-0.045	-0.313	
15.0	0.0	0.0	0.0	0.0	0.01	0.096	
0.0	0.0	0.0	0.0	0.0	0.038	0.332	
1.0	0.0	0.0	0.0	0.0	0.048	0.559	
2.0	0.0	0.0	0.0	0.0	0.019	0.549	
3.0	0.0	0.0	0.0	0.0	-0.051	0.361	
4.0	0.0	0.0	0.0	0.0	-0.054	0.086	
5.0	0.0	0.0	0.0	0.0	-0.057	-0.402	
6.0	0.0	0.0	0.0	0.0	-0.061	-0.664	
7.0	0.0	0.0	0.0	0.0	0.086	-0.46	
8.0	0.0	0.0	0.0	0.0	0.192	0.061	
9.0	0.0	0.0	0.0	0.0	0.172	0.485	
10.0	0.0	0.0	0.0	0.0	0.121	0.754	
11.0	0.0	0.0	0.0	0.0	0.022	0.987	
12.0	0.0	0.0	0.0	0.0	-0.029	0.993	
13.0	0.0	0.0	0.0	0.0	-0.137	0.757	
14.0	0.0	0.0	0.0	0.0	-0.246	0.102	
15.0	0.0	0.0	0.0	0.0	-0.291	-0.933	
0.0	0.0	0.0	0.0	0.0	-0.252	-1.539	
1.0	0.0	0.0	0.0	0.0	-0.045	-1.383	
2.0	0.0	0.0	0.0	0.0	0.118	-1.265	
3.0	0.0	0.0	0.0	0.0	0.192	-1.102	
4.0	0.0	0.0	0.0	0.0	0.252	-0.39	
5.0	0.0	0.0	0.0	0.0	0.227	0.441	
6.0	0.0	0.0	0.0	0.0	0.134	0.795	
7.0	0.0	0.0	0.0	0.0	0.016	0.632	
8.0	0.0	0.0	0.0	0.0	-0.077	0.412	
9.0	0.0	0.0	0.0	0.0	-0.141	0.144	
10.0	0.0	0.0	0.0	0.0	-0.102	-0.061	
11.0	0.0	0.0	0.0	0.0	-0.057	-0.16	
12.0	0.0	0.0	0.0	0.0	-0.016	-0.243	
13.0	0.0	0.0	0.0	0.0	0.022	-0.102	
14.0	0.0	0.0	0.0	0.0	0.022	0.131	
15.0	0.0	0.0	0.0	0.0	-0.006	0.316	
0.0	0.0	0.0	0.0	0.0	-0.022	0.418	
1.0	0.0	0.0	0.0	0.0	-0.013	0.521	
2.0	0.0	0.0	0.0	0.0	-0.003	0.767	
3.0	0.0	0.0	0.0	0.0	-0.019	1.048	
4.0	0.0	0.0	0.0	0.0	-0.08	0.997	
5.0	0.0	0.0	0.0	0.0	-0.099	0.422	
6.0	0.0	0.0	0.0	0.0	-0.045	-0.061	
7.0	0.0	0.0	0.0	0.0	-0.067	-0.332	
8.0	0.0	0.0	0.0	0.0	-0.182	-1.335	
9.0	0.0	0.0	0.0	0.0	-0.115	-1.635	
10.0	0.0	0.0	0.0	0.0	0.045	-1.635	
11.0	0.0	0.0	0.0	0.0	0.249	-0.706	
12.0	0.0	0.0	0.0	0.0	0.307	-0.038	
13.0	0.0	0.0	0.0	0.0	0.217	-0.185	
14.0	0.0	0.0	0.0	0.0	0.105	-0.265	
15.0	0.0	0.0	0.0	0.0	0.048	0.026	
0.0	0.0	0.0	0.0	0.0	0.035	0.383	
1.0	0.0	0.0	0.0	0.0	0.032	0.728	
2.0	0.0	0.0	0.0	0.0	0.013	0.904	
3.0	0.0	0.0	0.0	0.0	-0.038	0.85	
4.0	0.0	0.0	0.0	0.0	-0.105	0.703	
5.0	0.0	0.0	0.0	0.0	-0.22	0.431	
6.0	0.0	0.0	0.0	0.0	-0.265	0.073	
7.0	0.0	0.0	0.0	0.0	-0.284	-0.584	
8.0	0.0	0.0	0.0	0.0	-0.064	-1.166	
9.0	0.0	0.0	0.0	0.0	0.115	-0.725	
10.0	0.0	0.0	0.0	0.0	0.224	0.003	
11.0	0.0	0.0	0.0	0.0	0.224	0.489	
12.0	0.0	0.0	0.0	0.0	0.137	0.562	
13.0	0.0	0.0	0.0	0.0	0.038	0.46	
14.0	0.0	0.0	0.0	0.0	-0.032	0.501	
15.0	0.0	0.0	0.0	0.0	-0.048	0.53	
0.0	0.0	0.0	0.0	0.0	-0.073	0.16	
1.0	0.0	0.0	0.0	0.0	-0.054	-0.083	
2.0	0.0	0.0	0.0	0.0	-0.064	-0.303	
3.0	0.0	0.0	0.0	0.0	-0.08	-0.492	
4.0	0.0	0.0	0.0	0.0	-0.045	-0.901	
5.0	0.0	0.0	0.0	0.0	0.051	-0.578	
6.0	0.0	0.0	0.0	0.0	0.099	-0.032	
7.0	0.0	0.0	0.0	0.0	0.035	0.118	
8.0	0.0	0.0	0.0	0.0	-0.022	0.294	
9.0	0.0	0.0	0.0	0.0	-0.035	0.351	
10.0	0.0	0.0	0.0	0.0	-0.003	0.3	
11.0	0.0	0.0	0.0	0.0	-0.013	0.275	
12.0	0.0	0.0	0.0	0.0	-0.089	0.054	
13.0	0.0	0.0	0.0	0.0	-0.153	-0.786	
14.0	0.0	0.0	0.0	0.0	-0.01	-1.364	
15.0	0.0	0.0	0.0	0.0	0.125	-0.754	
0.0	0.0	0.0	0.0	0.0	0.166	-0.022	
1.0	0.0	0.0	0.0	0.0	0.15	0.342	
2.0	0.0	0.0	0.0	0.0	0.061	0.569	
3.0	0.0	0.0	0.0	0.0	0.003	0.69	
4.0	0.0	0.0	0.0	0.0	-0.061	0.45	
5.0	0.0	0.0	0.0	0.0	-0.051	0.208	
6.0	0.0	0.0	0.0	0.0	-0.042	0.15	
7.0	0.0	0.0	0.0	0.0	-0.089	-0.112	
8.0	0.0	0.0	0.0	0.0	-0.077	-0.533	
9.0	0.0	0.0	0.0	0.0	-0.003	-0.537	
10.0	0.0	0.0	0.0	0.0	0.089	-0.15	
11.0	0.0	0.0	0.0	0.0	0.105	0.102	
12.0	0.0	0.0	0.0	0.0	0.077	0.176	
13.0	0.0	0.0	0.0	0.0	0.038	0.102	
14.0	0.0	0.0	0.0	0.0	-0.022	0.003	
15.0	0.0	0.0	0.0	0.0	-0.051	0.01	
0.0	0.0	0.0	0.0	0.0	-0.067	0.086	
1.0	0.0	0.0	0.0	0.0	-0.073	0.141	
2.0	0.0	0.0	0.0	0.0	-0.042	0.198	
3.0	0.0	0.0	0.0	0.0	-0.026	0.265	
4.0	0.0	0.0	0.0	0.0	-0.022	0.278	
5.0	0.0	0.0	0.0	0.0	-0.016	0.262	
6.0	0.0	0.0	0.0	0.0	0.022	0.153	
7.0	0.0	0.0	0.0	0.0	0.042	0.125	
8.0	0.0	0.0	0.0	0.0	0.022	0.386	
9.0	0.0	0.0	0.0	0.0	0.003	0.575	
10.0	0.0	0.0	0.0	0.0	-0.013	0.425	
11.0	0.0	0.0	0.0	0.0	-0.032	-0.048	
12.0	0.0	0.0	0.0	0.0	-0.083	-0.658	
13.0	0.0	0.0	0.0	0.0	-0.141	-1.137	
14.0	0.0	0.0	0.0	0.0	-0.08	-1.635	
15.0	0.0	0.0	0.0	0.0	0.01	-1.635	
0.0	0.0	0.0	0.0	0.0	0.169	-0.329	
1.0	0.0	0.0	0.0	0.0	0.256	0.313	
2.0	0.0	0.0	0.0	0.0	0.188	0.355	
3.0	0.0	0.0	0.0	0.0	0.07	0.281	
4.0	0.0	0.0	0.0	0.0	-0.003	0.188	
5.0	0.0	0.0	0.0	0.0	-0.045	0.249	
6.0	0.0	0.0	0.0	0.0	-0.057	0.208	
7.0	0.0	0.0	0.0	0.0	-0.048	0.188	
8.0	0.0	0.0	0.0	0.0	-0.064	0.294	
9.0	0.0	0.0	0.0	0.0	-0.089	0.278	
10.0	0.0	0.0	0.0	0.0	-0.102	0.201	
11.0	0.0	0.0	0.0	0.0	-0.089	0.275	
12.0	0.0	0.0	0.0	0.0	-0.048	0.287	
13.0	0.0	0.0	0.0	0.0	-0.022	0.057	
14.0	0.0	0.0	0.0	0.0	0.003	-0.038	
15.0	0.0	0.0	0.0	0.0	0.013	0.128	
0.0	0.0	0.0	0.0	0.0	0.016	0.367	
1.0	0.0	0.0	0.0	0.0	0.035	0.508	
2.0	0.0	0.0	0.0	0.0	0.022	0.546	
3.0	0.0	0.0	0.0	0.0	-0.048	0.521	
4.0	0.0	0.0	0.0	0.0	-0.109	0.054	
5.0	0.0	0.0	0.0	0.0	-0.115	-0.648	
6.0	0.0	0.0	0.0	0.0	-0.057	-1.22	
7.0	0.0	0.0	0.0	0.0	0.121	-1.179	
8.0	0.0	0.0	0.0	0.0	0.262	-0.594	
9.0	0.0	0.0	0.0	0.0	0.252	0.057	
10.0	0.0	0.0	0.0	0.0	0.192	0.144	
11.0	0.0	0.0	0.0	0.0	0.061	-0.268	
12.0	0.0	0.0	0.0	0.0	-0.032	-0.463	
13.0	0.0	0.0	0.0	0.0	-0.026	-0.268	
14.0	0.0	0.0	0.0	0.0	-0.026	0.102	
15.0	0.0	0.0	0.0	0.0	-0.057	0.195	
0.0	0.0	0.0	0.0	0.0	-0.083	0.07	
1.0	0.0	0.0	0.0	0.0	-0.067	0.227	
2.0	0.0	0.0	0.0	0.0	-0.045	0.454	
3.0	0.0	0.0	0.0	0.0	-0.022	0.699	
4.0	0.0	0.0	0.0	0.0	-0.029	0.76	
5.0	0.0	0.0	0.0	0.0	-0.073	0.623	
6.0	0.0	0.0	0.0	0.0	-0.147	0.699	
7.0	0.0	0.0	0.0	0.0	-0.153	0.517	
8.0	0.0	0.0	0.0	0.0	-0.157	0.105	
9.0	0.0	0.0	0.0	0.0	-0.08	-0.744	
10.0	0.0	0.0	0.0	0.0	-0.019	-1.118	
11.0	0.0	0.0	0.0	0.0	0.016	-1.3	
12.0	0.0	0.0	0.0	0.0	0.093	-1.635	
13.0	0.0	0.0	0.0	0.0	0.224	-0.981	
14.0	0.0	0.0	0.0	0.0	0.303	0.07	
15.0	0.0	0.0	0.0	0.0	0.246	0.533	
0.0	0.0	0.0	0.0	0.0	0.102	0.501	
1.0	0.0	0.0	0.0	0.0	-0.042	0.402	
2.0	0.0	0.0	0.0	0.0	-0.102	0.46	
3.0	0.0	0.0	0.0	0.0	-0.109	0.46	
4.0	0.0	0.0	0.0	0.0	-0.086	0.268	
5.0	0.0	0.0	0.0	0.0	-0.08	0.115	
6.0	0.0	0.0	0.0	0.0	-0.125	-0.07	
7.0	0.0	0.0	0.0	0.0	-0.083	-0.281	
8.0	0.0	0.0	0.0	0.0	-0.019	-0.23	
9.0	0.0	0.0	0.0	0.0	0.035	-0.224	
10.0	0.0	0.0	0.0	0.0	0.067	-0.102	
11.0	0.0	0.0	0.0	0.0	0.083	0.026	
12.0	0.0	0.0	0.0	0.0	0.144	0.243	
13.0	0.0	0.0	0.0	0.0	0.153	0.284	
14.0	0.0	0.0	0.0	0.0	0.083	0.345	
15.0	0.0	0.0	0.0	0.0	-0.003	0.105	
0.0	0.0	0.0	0.0	0.0	-0.105	-0.22	
1.0	0.0	0.0	0.0	0.0	-0.179	-0.252	
2.0	0.0	0.0	0.0	0.0	-0.112	-0.083	
3.0	0.0	0.0	0.0	0.0	0.035	-0.032	
4.0	0.0	0.0	0.0	0.0	0.064	0.003	
5.0	0.0	0.0	0.0	0.0	0.003	0.096	
6.0	0.0	0.0	0.0	0.0	-0.038	0.214	
7.0	0.0	0.0	0.0	0.0	-0.102	0.23	
8.0	0.0	0.0	0.0	0.0	-0.064	0.121	
9.0	0.0	0.0	0.0	0.0	-0.01	0.099	
10.0	0.0	0.0	0.0	0.0	-0.019	0.23	
11.0	0.0	0.0	0.0	0.0	-0.003	0.335	
12.0	0.0	0.0	0.0	0.0	0.08	0.37	
13.0	0.0	0.0	0.0	0.0	0.022	0.15	
14.0	0.0	0.0	0.0	0.0	-0.121	-0.358	
15.0	0.0	0.0	0.0	0.0	-0.3	-1.15	
0.0	0.0	0.0	0.0	0.0	-0.246	-1.635	
1.0	0.0	0.0	0.0	0.0	0.102	-1.341	
2.0	0.0	0.0	0.0	0.0	0.374	-0.201	
3.0	0.0	0.0	0.0	0.0	0.377	0.731	
4.0	0.0	0.0	0.0	0.0	0.275	1.035	
5.0	0.0	0.0	0.0	0.0	0.16	0.91	
6.0	0.0	0.0	0.0	0.0	0.038	0.719	
7.0	0.0	0.0	0.0	0.0	-0.118	0.556	
8.0	0.0	0.0	0.0	0.0	-0.268	0.278	
9.0	0.0	0.0	0.0	0.0	-0.319	-0.54	
10.0	0.0	0.0	0.0	0.0	-0.141	-0.744	
11.0	0.0	0.0	0.0	0.0	0.003	-0.543	
12.0	0.0	0.0	0.0	0.0	0.003	-0.805	
13.0	0.0	0.0	0.0	0.0	-0.016	-0.792	
14.0	0.0	0.0	0.0	0.0	0.038	-0.332	
15.0	0.0	0.0	0.0	0.0	0.077	0.182	
0.0	0.0	0.0	0.0	0.0	0.048	0.438	
1.0	0.0	0.0	0.0	0.0	0.029	0.463	
2.0	0.0	0.0	0.0	0.0	0.019	0.45	
3.0	0.0	0.0	0.0	0.0	0.026	0.428	
4.0	0.0	0.0	0.0	0.0	0.0	0.447	
5.0	0.0	0.0	0.0	0.0	-0.032	0.434	
6.0	0.0	0.0	0.0	0.0	-0.07	0.281	
7.0	0.0	0.0	0.0	0.0	-0.022	0.118	
8.0	0.0	0.0	0.0	0.0	0.026	0.125	
9.0	0.0	0.0	0.0	0.0	-0.026	0.195	
10.0	0.0	0.0	0.0	0.0	-0.035	0.01	
11.0	0.0	0.0	0.0	0.0	0.003	-0.323	
12.0	0.0	0.0	0.0	0.0	0.073	-0.23	
13.0	0.0	0.0	0.0	0.0	0.013	-0.067	
14.0	0.0	0.0	0.0	0.0	-0.121	-0.006	
15.0	0.0	0.0	0.0	0.0	-0.115	0.045	
0.0	0.0	0.0	0.0	0.0	-0.013	0.099	
1.0	0.0	0.0	0.0	0.0	0.105	-0.038	
2.0	0.0	0.0	0.0	0.0	0.051	-0.533	
3.0	0.0	0.0	0.0	0.0	-0.073	-1.255	
4.0	0.0	0.0	0.0	0.0	-0.064	-1.306	
5.0	0.0	0.0	0.0	0.0	0.045	-0.83	
6.0	0.0	0.0	0.0	0.0	0.157	-0.121	
7.0	0.0	0.0	0.0	0.0	0.147	0.537	
8.0	0.0	0.0	0.0	0.0	0.099	0.76	
9.0	0.0	0.0	0.0	0.0	0.026	0.786	
10.0	0.0	0.0	0.0	0.0	-0.003	0.661	
11.0	0.0	0.0	0.0	0.0	-0.035	0.342	
12.0	0.0	0.0	0.0	0.0	-0.093	0.249	
13.0	0.0	0.0	0.0	0.0	-0.166	0.115	
14.0	0.0	0.0	0.0	0.0	-0.163	0.198	
15.0	0.0	0.0	0.0	0.0	-0.118	-0.147	
0.0	0.0	0.0	0.0	0.0	0.01	-0.332	
1.0	0.0	0.0	0.0	0.0	0.093	0.003	
2.0	0.0	0.0	0.0	0.0	0.102	-0.003	
3.0	0.0	0.0	0.0	0.0	0.006	-0.329	
4.0	0.0	0.0	0.0	0.0	-0.067	-0.773	
5.0	0.0	0.0	0.0	0.0	0.061	-0.837	
6.0	0.0	0.0	0.0	0.0	0.147	-0.211	
7.0	0.0	0.0	0.0	0.0	0.179	0.652	
8.0	0.0	0.0	0.0	0.0	0.089	0.894	
9.0	0.0	0.0	0.0	0.0	0.016	0.907	
10.0	0.0	0.0	0.0	0.0	-0.035	0.549	
11.0	0.0	0.0	0.0	0.0	-0.093	0.211	
12.0	0.0	0.0	0.0	0.0	-0.188	-0.112	
13.0	0.0	0.0	0.0	0.0	-0.281	-0.588	
14.0	0.0	0.0	0.0	0.0	-0.179	-1.092	
15.0	0.0	0.0	0.0	0.0	0.006	-1.252	
0.0	0.0	0.0	0.0	0.0	0.188	-0.827	
1.0	0.0	0.0	0.0	0.0	0.204	-0.249	
2.0	0.0	0.0	0.0	0.0	0.153	0.201	
3.0	0.0	0.0	0.0	0.0	0.105	0.537	
4.0	0.0	0.0	0.0	0.0	0.07	0.556	
5.0	0.0	0.0	0.0	0.0	-0.006	0.457	
6.0	0.0	0.0	0.0	0.0	-0.112	0.179	
7.0	0.0	0.0	0.0	0.0	-0.182	0.022	
8.0	0.0	0.0	0.0	0.0	-0.204	-0.019	
9.0	0.0	0.0	0.0	0.0	-0.026	-0.323	
10.0	0.0	0.0	0.0	0.0	0.105	-0.163	
11.0	0.0	0.0	0.0	0.0	0.121	-0.022	
12.0	0.0	0.0	0.0	0.0	0.128	0.163	
13.0	0.0	0.0	0.0	0.0	0.07	0.31	
14.0	0.0	0.0	0.0	0.0	-0.032	0.284	
15.0	0.0	0.0	0.0	0.0	-0.115	0.144	
0.0	0.0	0.0	0.0	0.0	-0.083	0.096	
1.0	0.0	0.0	0.0	0.0	-0.064	0.112	
2.0	0.0	0.0	0.0	0.0	-0.045	0.105	
3.0	0.0	0.0	0.0	0.0	-0.01	0.003	
4.0	0.0	0.0	0.0	0.0	-0.003	-0.073	
5.0	0.0	0.0	0.0	0.0	0.003	-0.067	
6.0	0.0	0.0	0.0	0.0	0.013	0.051	
7.0	0.0	0.0	0.0	0.0	0.035	0.31	
8.0	0.0	0.0	0.0	0.0	0.032	0.434	
9.0	0.0	0.0	0.0	0.0	0.01	0.521	
10.0	0.0	0.0	0.0	0.0	-0.061	0.53	
11.0	0.0	0.0	0.0	0.0	-0.153	0.054	
12.0	0.0	0.0	0.0	0.0	-0.128	-0.604	
13.0	0.0	0.0	0.0	0.0	0.022	-0.763	
14.0	0.0	0.0	0.0	0.0	0.099	-0.77	
15.0	0.0	0.0	0.0	0.0	0.137	-0.489	
0.0	0.0	0.0	0.0	0.0	0.115	-0.415	
1.0	0.0	0.0	0.0	0.0	0.061	-0.562	
2.0	0.0	0.0	0.0	0.0	0.022	-0.511	
3.0	0.0	0.0	0.0	0.0	0.029	-0.332	
4.0	0.0	0.0	0.0	0.0	0.038	-0.169	
5.0	0.0	0.0	0.0	0.0	0.032	0.026	
6.0	0.0	0.0	0.0	0.0	0.048	0.24	
7.0	0.0	0.0	0.0	0.0	0.026	0.358	
8.0	0.0	0.0	0.0	0.0	-0.042	0.355	
9.0	0.0	0.0	0.0	0.0	-0.073	0.211	
10.0	0.0	0.0	0.0	0.0	-0.109	0.105	
11.0	0.0	0.0	0.0	0.0	-0.08	0.086	
12.0	0.0	0.0	0.0	0.0	-0.032	0.089	
13.0	0.0	0.0	0.0	0.0	-0.013	0.335	
14.0	0.0	0.0	0.0	0.0	0.0	0.661	
15.0	0.0	0.0	0.0	0.0	0.013	0.783	
0.0	0.0	0.0	0.0	0.0	-0.038	0.636	
1.0	0.0	0.0	0.0	0.0	-0.166	0.262	
2.0	0.0	0.0	0.0	0.0	-0.275	-0.425	
3.0	0.0	0.0	0.0	0.0	-0.188	-1.156	
4.0	0.0	0.0	0.0	0.0	0.026	-1.635	
5.0	0.0	0.0	0.0	0.0	0.271	-0.85	
6.0	0.0	0.0	0.0	0.0	0.335	-0.303	
7.0	0.0	0.0	0.0	0.0	0.22	0.093	
8.0	0.0	0.0	0.0	0.0	0.121	0.3	
9.0	0.0	0.0	0.0	0.0	0.035	0.342	
10.0	0.0	0.0	0.0	0.0	-0.003	0.406	
11.0	0.0	0.0	0.0	0.0	-0.01	0.533	
12.0	0.0	0.0	0.0	0.0	-0.032	0.6	
13.0	0.0	0.0	0.0	0.0	-0.022	0.674	
14.0	0.0	0.0	0.0	0.0	-0.029	0.6	
15.0	0.0	0.0	0.0	0.0	-0.102	0.15	
0.0	0.0	0.0	0.0	0.0	-0.227	-0.358	
1.0	0.0	0.0	0.0	0.0	-0.236	-1.003	
2.0	0.0	0.0	0.0	0.0	-0.035	-1.07	
3.0	0.0	0.0	0.0	0.0	0.112	-0.508	
4.0	0.0	0.0	0.0	0.0	0.157	-0.182	
5.0	0.0	0.0	0.0	0.0	0.166	0.089	
6.0	0.0	0.0	0.0	0.0	0.099	0.169	
7.0	0.0	0.0	0.0	0.0	0.026	0.252	
8.0	0.0	0.0	0.0	0.0	0.013	0.297	
9.0	0.0	0.0	0.0	0.0	0.0	0.335	
10.0	0.0	0.0	0.0	0.0	-0.013	0.406	
11.0	0.0	0.0	0.0	0.0	-0.006	0.374	
12.0	0.0	0.0	0.0	0.0	-0.013	0.316	
13.0	0.0	0.0	0.0	0.0	-0.048	-0.016	
14.0	0.0	0.0	0.0	0.0	-0.102	-0.224	
15.0	0.0	0.0	0.0	0.0	-0.115	0.035	
0.0	0.0	0.0	0.0	0.0	-0.083	0.294	
1.0	0.0	0.0	0.0	0.0	-0.051	0.342	
