# OpenSignals Text File Format. Version 1
# {"88:6B:0F:F0:D6:9F": {"position": 0, "device": "bitalino_rev", "device name": "88:6B:0F:F0:D6:9F", "device connection": "BTH88:6B:0F:F0:D6:9F", "sampling rate": 1000, "resolution": [4, 1, 1, 1, 1, 10, 10], "firmware version": 1282, "comments": "", "keywords": "", "mode": 0, "sync interval": 2, "date": "2025-10-22", "time": "14:0:15.531", "channels": [3, 4], "sensor": ["EMGBITREV", "EMGBITREV"], "label": ["A3", "A4"], "column": ["nSeq", "I1", "I2", "O1", "O2", "A3", "A4"], "special": [{}, {}], "digital IO": [0, 0, 1, 1], "convertedValues": 0}}
# EndOfHeader
0	0	0	0	0	513	495	
1	0	0	0	0	525	485	
2	0	0	0	0	535	477	
3	0	0	0	0	544	478	
4	0	0	0	0	552	474	
5	0	0	0	0	557	478	
6	0	0	0	0	552	481	
7	0	0	0	0	542	490	
8	0	0	0	0	530	502	
9	0	0	0	0	517	508	
10	0	0	0	0	505	519	
11	0	0	0	0	496	528	
12	0	0	0	0	485	537	
13	0	0	0	0	477	540	
14	0	0	0	0	470	539	
15	0	0	0	0	466	536	
0	0	0	0	0	465	532	
1	0	0	0	0	473	522	
2	0	0	0	0	486	514	
3	0	0	0	0	502	506	
4	0	0	0	0	514	502	
5	0	0	0	0	528	488	
6	0	0	0	0	543	480	
7	0	0	0	0	550	473	
8	0	0	0	0	555	472	
9	0	0	0	0	557	476	
10	0	0	0	0	553	478	
11	0	0	0	0	548	486	
12	0	0	0	0	535	498	
13	0	0	0	0	524	508	
14	0	0	0	0	512	519	
15	0	0	0	0	498	530	
0	0	0	0	0	483	538	
1	0	0	0	0	477	540	
2	0	0	0	0	471	543	
3	0	0	0	0	469	540	
4	0	0	0	0	470	536	
5	0	0	0	0	479	527	
6	0	0	0	0	489	513	
7	0	0	0	0	499	506	
8	0	0	0	0	511	497	
9	0	0	0	0	527	487	
10	0	0	0	0	541	478	
11	0	0	0	0	548	472	
12	0	0	0	0	553	476	
13	0	0	0	0	554	473	
14	0	0	0	0	552	479	
15	0	0	0	0	545	490	
0	0	0	0	0	536	498	
1	0	0	0	0	527	505	
2	0	0	0	0	513	518	
3	0	0	0	0	496	529	
4	0	0	0	0	481	536	
5	0	0	0	0	475	541	
6	0	0	0	0	471	541	
7	0	0	0	0	470	537	
8	0	0	0	0	470	536	
9	0	0	0	0	476	530	
10	0	0	0	0	486	514	
11	0	0	0	0	495	507	
12	0	0	0	0	507	495	
13	0	0	0	0	522	487	
14	0	0	0	0	535	481	
15	0	0	0	0	547	476	
0	0	0	0	0	556	474	
1	0	0	0	0	559	477	
2	0	0	0	0	556	479	
3	0	0	0	0	545	485	
4	0	0	0	0	528	498	
5	0	0	0	0	519	509	
6	0	0	0	0	511	518	
7	0	0	0	0	498	529	
8	0	0	0	0	487	538	
9	0	0	0	0	477	539	
10	0	0	0	0	470	541	
11	0	0	0	0	467	539	
12	0	0	0	0	469	536	
13	0	0	0	0	480	526	
14	0	0	0	0	492	515	
15	0	0	0	0	502	506	
0	0	0	0	0	516	500	
1	0	0	0	0	531	486	
2	0	0	0	0	542	478	
3	0	0	0	0	549	476	
4	0	0	0	0	553	473	
5	0	0	0	0	555	473	
6	0	0	0	0	556	475	
7	0	0	0	0	548	488	
8	0	0	0	0	534	498	
9	0	0	0	0	523	509	
10	0	0	0	0	509	519	
11	0	0	0	0	496	531	
12	0	0	0	0	483	540	
13	0	0	0	0	476	542	
14	0	0	0	0	473	543	
15	0	0	0	0	468	540	
0	0	0	0	0	465	533	
1	0	0	0	0	471	524	
2	0	0	0	0	485	513	
3	0	0	0	0	499	505	
4	0	0	0	0	513	499	
5	0	0	0	0	525	487	
6	0	0	0	0	539	479	
7	0	0	0	0	547	472	
8	0	0	0	0	555	475	
9	0	0	0	0	556	475	
10	0	0	0	0	556	477	
11	0	0	0	0	548	484	
12	0	0	0	0	535	498	
13	0	0	0	0	525	507	
14	0	0	0	0	513	519	
15	0	0	0	0	500	529	
0	0	0	0	0	486	541	
1	0	0	0	0	477	543	
2	0	0	0	0	474	540	
3	0	0	0	0	472	539	
4	0	0	0	0	471	535	
5	0	0	0	0	479	525	
6	0	0	0	0	489	515	
7	0	0	0	0	496	506	
8	0	0	0	0	505	493	
9	0	0	0	0	521	486	
10	0	0	0	0	536	477	
11	0	0	0	0	542	473	
12	0	0	0	0	547	474	
13	0	0	0	0	549	476	
14	0	0	0	0	552	479	
15	0	0	0	0	547	489	
0	0	0	0	0	535	501	
1	0	0	0	0	527	508	
2	0	0	0	0	516	519	
3	0	0	0	0	499	529	
4	0	0	0	0	487	538	
5	0	0	0	0	476	542	
6	0	0	0	0	469	541	
7	0	0	0	0	467	539	
8	0	0	0	0	469	535	
9	0	0	0	0	479	528	
10	0	0	0	0	490	516	
11	0	0	0	0	502	507	
12	0	0	0	0	513	493	
13	0	0	0	0	526	485	
14	0	0	0	0	540	476	
15	0	0	0	0	547	473	
0	0	0	0	0	547	473	
1	0	0	0	0	553	476	
2	0	0	0	0	556	478	
3	0	0	0	0	547	487	
4	0	0	0	0	531	496	
5	0	0	0	0	518	504	
6	0	0	0	0	507	515	
7	0	0	0	0	496	528	
8	0	0	0	0	484	538	
9	0	0	0	0	477	542	
10	0	0	0	0	475	544	
11	0	0	0	0	472	541	
12	0	0	0	0	472	536	
13	0	0	0	0	481	527	
14	0	0	0	0	497	518	
15	0	0	0	0	508	506	
0	0	0	0	0	519	499	
1	0	0	0	0	522	488	
2	0	0	0	0	533	481	
3	0	0	0	0	540	475	
4	0	0	0	0	545	472	
5	0	0	0	0	550	474	
6	0	0	0	0	548	477	
7	0	0	0	0	543	487	
8	0	0	0	0	532	496	
9	0	0	0	0	524	504	
10	0	0	0	0	513	515	
11	0	0	0	0	503	529	
12	0	0	0	0	485	538	
13	0	0	0	0	473	537	
14	0	0	0	0	470	542	
15	0	0	0	0	468	545	
0	0	0	0	0	470	537	
1	0	0	0	0	481	524	
2	0	0	0	0	492	514	
3	0	0	0	0	504	505	
4	0	0	0	0	516	496	
5	0	0	0	0	527	487	
6	0	0	0	0	542	478	
7	0	0	0	0	547	477	
8	0	0	0	0	551	475	
9	0	0	0	0	554	475	
10	0	0	0	0	554	475	
11	0	0	0	0	546	488	
12	0	0	0	0	534	497	
13	0	0	0	0	525	510	
14	0	0	0	0	515	521	
15	0	0	0	0	499	533	
0	0	0	0	0	481	538	
1	0	0	0	0	472	540	
2	0	0	0	0	472	539	
3	0	0	0	0	468	538	
4	0	0	0	0	466	532	
5	0	0	0	0	474	523	
6	0	0	0	0	488	515	
7	0	0	0	0	497	509	
8	0	0	0	0	509	499	
9	0	0	0	0	527	486	
10	0	0	0	0	539	480	
11	0	0	0	0	550	475	
12	0	0	0	0	554	475	
13	0	0	0	0	554	476	
14	0	0	0	0	556	479	
15	0	0	0	0	547	487	
0	0	0	0	0	533	496	
1	0	0	0	0	522	505	
2	0	0	0	0	511	516	
3	0	0	0	0	497	527	
4	0	0	0	0	484	539	
5	0	0	0	0	475	543	
6	0	0	0	0	471	541	
7	0	0	0	0	470	542	
8	0	0	0	0	477	536	
9	0	0	0	0	479	526	
10	0	0	0	0	490	515	
11	0	0	0	0	502	510	
12	0	0	0	0	512	499	
13	0	0	0	0	523	486	
14	0	0	0	0	540	477	
15	0	0	0	0	547	473	
0	0	0	0	0	551	473	
1	0	0	0	0	555	477	
2	0	0	0	0	555	476	
3	0	0	0	0	546	486	
4	0	0	0	0	535	497	
5	0	0	0	0	523	508	
6	0	0	0	0	511	517	
7	0	0	0	0	497	527	
8	0	0	0	0	482	537	
9	0	0	0	0	469	539	
10	0	0	0	0	465	539	
11	0	0	0	0	466	541	
12	0	0	0	0	467	536	
13	0	0	0	0	479	529	
14	0	0	0	0	492	512	
15	0	0	0	0	503	505	
0	0	0	0	0	515	494	
1	0	0	0	0	528	486	
2	0	0	0	0	534	476	
3	0	0	0	0	547	474	
4	0	0	0	0	553	477	
5	0	0	0	0	553	478	
6	0	0	0	0	552	481	
7	0	0	0	0	547	487	
8	0	0	0	0	538	502	
9	0	0	0	0	524	510	
10	0	0	0	0	512	521	
11	0	0	0	0	502	531	
12	0	0	0	0	483	541	
13	0	0	0	0	476	540	
14	0	0	0	0	473	540	
15	0	0	0	0	471	537	
0	0	0	0	0	471	535	
1	0	0	0	0	480	524	
2	0	0	0	0	489	513	
3	0	0	0	0	499	504	
4	0	0	0	0	509	495	
5	0	0	0	0	524	485	
6	0	0	0	0	540	480	
7	0	0	0	0	545	475	
8	0	0	0	0	550	475	
9	0	0	0	0	552	477	
10	0	0	0	0	550	479	
11	0	0	0	0	549	487	
12	0	0	0	0	536	497	
13	0	0	0	0	521	508	
14	0	0	0	0	506	519	
15	0	0	0	0	494	530	
0	0	0	0	0	479	537	
1	0	0	0	0	470	539	
2	0	0	0	0	471	540	
3	0	0	0	0	470	540	
4	0	0	0	0	473	534	
5	0	0	0	0	481	527	
6	0	0	0	0	495	516	
7	0	0	0	0	508	509	
8	0	0	0	0	518	497	
9	0	0	0	0	532	486	
10	0	0	0	0	542	476	
11	0	0	0	0	545	471	
12	0	0	0	0	549	473	
13	0	0	0	0	548	475	
14	0	0	0	0	547	476	
15	0	0	0	0	540	486	
0	0	0	0	0	531	498	
1	0	0	0	0	521	507	
2	0	0	0	0	508	520	
3	0	0	0	0	498	531	
4	0	0	0	0	484	540	
5	0	0	0	0	476	543	
6	0	0	0	0	473	542	
7	0	0	0	0	473	540	
8	0	0	0	0	472	536	
9	0	0	0	0	481	524	
10	0	0	0	0	492	515	
11	0	0	0	0	500	505	
12	0	0	0	0	514	496	
13	0	0	0	0	528	488	
14	0	0	0	0	537	476	
15	0	0	0	0	544	471	
0	0	0	0	0	550	476	
1	0	0	0	0	553	475	
2	0	0	0	0	550	475	
3	0	0	0	0	545	487	
4	0	0	0	0	535	499	
5	0	0	0	0	524	508	
6	0	0	0	0	512	517	
7	0	0	0	0	497	528	
8	0	0	0	0	483	539	
9	0	0	0	0	475	542	
10	0	0	0	0	473	542	
11	0	0	0	0	470	543	
12	0	0	0	0	472	537	
13	0	0	0	0	478	528	
14	0	0	0	0	487	513	
15	0	0	0	0	499	504	
0	0	0	0	0	509	497	
1	0	0	0	0	525	488	
2	0	0	0	0	540	480	
3	0	0	0	0	549	477	
4	0	0	0	0	554	475	
5	0	0	0	0	557	477	
6	0	0	0	0	555	478	
7	0	0	0	0	548	487	
8	0	0	0	0	536	499	
9	0	0	0	0	523	506	
10	0	0	0	0	513	514	
11	0	0	0	0	496	527	
12	0	0	0	0	483	537	
13	0	0	0	0	476	538	
14	0	0	0	0	472	540	
15	0	0	0	0	473	540	
0	0	0	0	0	472	537	
1	0	0	0	0	480	527	
2	0	0	0	0	492	513	
3	0	0	0	0	503	504	
4	0	0	0	0	514	496	
5	0	0	0	0	528	486	
6	0	0	0	0	541	477	
7	0	0	0	0	549	474	
8	0	0	0	0	550	478	
9	0	0	0	0	550	476	
10	0	0	0	0	548	477	
11	0	0	0	0	543	487	
12	0	0	0	0	531	499	
13	0	0	0	0	519	509	
14	0	0	0	0	505	517	
15	0	0	0	0	494	527	
0	0	0	0	0	485	536	
1	0	0	0	0	478	541	
2	0	0	0	0	475	540	
3	0	0	0	0	472	540	
4	0	0	0	0	472	536	
5	0	0	0	0	478	525	
6	0	0	0	0	486	512	
7	0	0	0	0	497	503	
8	0	0	0	0	510	498	
9	0	0	0	0	527	491	
10	0	0	0	0	544	481	
11	0	0	0	0	553	475	
12	0	0	0	0	553	475	
13	0	0	0	0	555	476	
14	0	0	0	0	555	476	
15	0	0	0	0	547	485	
0	0	0	0	0	534	500	
1	0	0	0	0	519	510	
2	0	0	0	0	505	516	
3	0	0	0	0	491	526	
4	0	0	0	0	483	538	
5	0	0	0	0	476	544	
6	0	0	0	0	472	543	
7	0	0	0	0	472	539	
8	0	0	0	0	472	535	
9	0	0	0	0	481	524	
10	0	0	0	0	491	514	
11	0	0	0	0	507	506	
12	0	0	0	0	513	498	
13	0	0	0	0	527	487	
14	0	0	0	0	538	480	
15	0	0	0	0	547	479	
0	0	0	0	0	553	476	
1	0	0	0	0	554	478	
2	0	0	0	0	551	479	
3	0	0	0	0	545	487	
4	0	0	0	0	532	495	
5	0	0	0	0	524	506	
6	0	0	0	0	512	515	
7	0	0	0	0	496	527	
8	0	0	0	0	484	535	
9	0	0	0	0	475	539	
10	0	0	0	0	471	540	
11	0	0	0	0	470	539	
12	0	0	0	0	469	536	
13	0	0	0	0	479	526	
14	0	0	0	0	491	514	
15	0	0	0	0	503	508	
0	0	0	0	0	515	501	
1	0	0	0	0	525	487	
2	0	0	0	0	537	480	
3	0	0	0	0	546	474	
4	0	0	0	0	547	476	
5	0	0	0	0	550	478	
6	0	0	0	0	548	476	
7	0	0	0	0	543	487	
8	0	0	0	0	535	500	
9	0	0	0	0	528	507	
10	0	0	0	0	514	516	
11	0	0	0	0	500	529	
12	0	0	0	0	486	539	
13	0	0	0	0	477	540	
14	0	0	0	0	474	541	
15	0	0	0	0	472	540	
0	0	0	0	0	471	535	
1	0	0	0	0	477	526	
2	0	0	0	0	486	515	
3	0	0	0	0	497	504	
4	0	0	0	0	508	497	
5	0	0	0	0	518	488	
6	0	0	0	0	532	476	
7	0	0	0	0	543	475	
8	0	0	0	0	554	477	
9	0	0	0	0	554	477	
10	0	0	0	0	552	481	
11	0	0	0	0	545	488	
12	0	0	0	0	537	499	
13	0	0	0	0	525	509	
14	0	0	0	0	511	515	
15	0	0	0	0	501	526	
0	0	0	0	0	487	536	
1	0	0	0	0	478	540	
2	0	0	0	0	471	539	
3	0	0	0	0	468	536	
4	0	0	0	0	467	534	
5	0	0	0	0	475	528	
6	0	0	0	0	490	513	
7	0	0	0	0	500	507	
8	0	0	0	0	515	500	
9	0	0	0	0	529	489	
10	0	0	0	0	542	482	
11	0	0	0	0	544	477	
12	0	0	0	0	548	474	
13	0	0	0	0	551	476	
14	0	0	0	0	554	480	
15	0	0	0	0	553	486	
0	0	0	0	0	540	497	
1	0	0	0	0	524	508	
2	0	0	0	0	509	516	
3	0	0	0	0	497	527	
4	0	0	0	0	487	535	
5	0	0	0	0	478	539	
6	0	0	0	0	473	542	
7	0	0	0	0	468	542	
8	0	0	0	0	468	531	
9	0	0	0	0	472	521	
10	0	0	0	0	487	513	
11	0	0	0	0	501	505	
12	0	0	0	0	517	497	
13	0	0	0	0	529	487	
14	0	0	0	0	542	481	
15	0	0	0	0	549	477	
0	0	0	0	0	553	478	
1	0	0	0	0	550	479	
2	0	0	0	0	551	481	
3	0	0	0	0	546	487	
4	0	0	0	0	533	497	
5	0	0	0	0	520	503	
6	0	0	0	0	508	512	
7	0	0	0	0	497	530	
8	0	0	0	0	482	535	
9	0	0	0	0	471	540	
10	0	0	0	0	468	538	
11	0	0	0	0	467	539	
12	0	0	0	0	467	535	
13	0	0	0	0	477	527	
14	0	0	0	0	493	517	
15	0	0	0	0	504	508	
0	0	0	0	0	516	499	
1	0	0	0	0	530	489	
2	0	0	0	0	541	482	
3	0	0	0	0	547	476	
4	0	0	0	0	551	474	
5	0	0	0	0	553	478	
6	0	0	0	0	555	480	
7	0	0	0	0	546	488	
8	0	0	0	0	535	499	
9	0	0	0	0	524	509	
10	0	0	0	0	511	517	
11	0	0	0	0	495	526	
12	0	0	0	0	479	534	
13	0	0	0	0	473	540	
14	0	0	0	0	472	540	
15	0	0	0	0	472	539	
0	0	0	0	0	474	535	
1	0	0	0	0	478	523	
2	0	0	0	0	486	513	
3	0	0	0	0	497	506	
4	0	0	0	0	510	497	
5	0	0	0	0	524	489	
6	0	0	0	0	537	482	
7	0	0	0	0	546	475	
8	0	0	0	0	550	476	
9	0	0	0	0	554	476	
10	0	0	0	0	554	481	
11	0	0	0	0	545	485	
12	0	0	0	0	532	498	
13	0	0	0	0	525	510	
14	0	0	0	0	512	521	
15	0	0	0	0	499	528	
0	0	0	0	0	485	535	
1	0	0	0	0	478	540	
2	0	0	0	0	474	539	
3	0	0	0	0	473	540	
4	0	0	0	0	472	537	
5	0	0	0	0	477	527	
6	0	0	0	0	488	510	
7	0	0	0	0	499	499	
8	0	0	0	0	511	494	
9	0	0	0	0	523	485	
10	0	0	0	0	537	479	
11	0	0	0	0	547	478	
12	0	0	0	0	551	478	
13	0	0	0	0	555	477	
14	0	0	0	0	552	481	
15	0	0	0	0	546	488	
0	0	0	0	0	535	498	
1	0	0	0	0	524	507	
2	0	0	0	0	512	516	
3	0	0	0	0	498	530	
4	0	0	0	0	484	538	
5	0	0	0	0	478	540	
6	0	0	0	0	475	540	
7	0	0	0	0	474	538	
8	0	0	0	0	472	535	
9	0	0	0	0	479	526	
10	0	0	0	0	488	513	
11	0	0	0	0	497	504	
12	0	0	0	0	507	497	
13	0	0	0	0	523	486	
14	0	0	0	0	540	481	
15	0	0	0	0	548	476	
0	0	0	0	0	554	477	
1	0	0	0	0	557	480	
2	0	0	0	0	557	481	
3	0	0	0	0	551	488	
4	0	0	0	0	532	498	
5	0	0	0	0	519	508	
6	0	0	0	0	508	519	
7	0	0	0	0	494	531	
8	0	0	0	0	482	536	
9	0	0	0	0	468	538	
10	0	0	0	0	464	537	
11	0	0	0	0	471	539	
12	0	0	0	0	474	537	
13	0	0	0	0	480	526	
14	0	0	0	0	490	513	
15	0	0	0	0	502	506	
0	0	0	0	0	515	496	
1	0	0	0	0	527	487	
2	0	0	0	0	536	480	
3	0	0	0	0	547	475	
4	0	0	0	0	554	476	
5	0	0	0	0	554	476	
6	0	0	0	0	551	477	
7	0	0	0	0	542	486	
8	0	0	0	0	534	501	
9	0	0	0	0	524	507	
10	0	0	0	0	515	520	
11	0	0	0	0	500	528	
12	0	0	0	0	484	539	
13	0	0	0	0	476	542	
14	0	0	0	0	473	540	
15	0	0	0	0	472	541	
0	0	0	0	0	471	532	
1	0	0	0	0	478	526	
2	0	0	0	0	492	514	
3	0	0	0	0	503	505	
4	0	0	0	0	512	496	
5	0	0	0	0	521	484	
6	0	0	0	0	535	477	
7	0	0	0	0	541	474	
8	0	0	0	0	550	477	
9	0	0	0	0	550	478	
10	0	0	0	0	549	479	
11	0	0	0	0	545	488	
12	0	0	0	0	535	501	
13	0	0	0	0	527	511	
14	0	0	0	0	516	519	
15	0	0	0	0	502	527	
0	0	0	0	0	489	532	
1	0	0	0	0	478	540	
2	0	0	0	0	470	541	
3	0	0	0	0	471	539	
4	0	0	0	0	467	531	
5	0	0	0	0	477	524	
6	0	0	0	0	489	515	
7	0	0	0	0	499	506	
8	0	0	0	0	507	497	
9	0	0	0	0	520	486	
10	0	0	0	0	536	478	
11	0	0	0	0	549	476	
12	0	0	0	0	553	478	
13	0	0	0	0	557	480	
14	0	0	0	0	553	480	
15	0	0	0	0	545	488	
0	0	0	0	0	533	499	
1	0	0	0	0	521	509	
2	0	0	0	0	510	516	
3	0	0	0	0	498	528	
4	0	0	0	0	484	535	
5	0	0	0	0	476	538	
6	0	0	0	0	473	538	
7	0	0	0	0	470	537	
8	0	0	0	0	472	536	
9	0	0	0	0	481	528	
10	0	0	0	0	491	514	
11	0	0	0	0	501	507	
12	0	0	0	0	510	496	
13	0	0	0	0	525	489	
14	0	0	0	0	535	481	
15	0	0	0	0	545	476	
0	0	0	0	0	550	477	
1	0	0	0	0	552	477	
2	0	0	0	0	553	476	
3	0	0	0	0	547	489	
4	0	0	0	0	535	499	
5	0	0	0	0	526	508	
6	0	0	0	0	511	516	
7	0	0	0	0	498	527	
8	0	0	0	0	483	535	
9	0	0	0	0	477	540	
10	0	0	0	0	472	541	
11	0	0	0	0	472	540	
12	0	0	0	0	474	534	
13	0	0	0	0	480	524	
14	0	0	0	0	491	512	
15	0	0	0	0	503	505	
0	0	0	0	0	511	494	
1	0	0	0	0	525	486	
2	0	0	0	0	536	479	
3	0	0	0	0	546	476	
4	0	0	0	0	548	477	
5	0	0	0	0	551	479	
6	0	0	0	0	551	481	
7	0	0	0	0	543	489	
8	0	0	0	0	536	500	
9	0	0	0	0	525	507	
10	0	0	0	0	509	518	
11	0	0	0	0	496	527	
12	0	0	0	0	483	538	
13	0	0	0	0	475	542	
14	0	0	0	0	473	539	
15	0	0	0	0	471	537	
0	0	0	0	0	472	533	
1	0	0	0	0	477	524	
2	0	0	0	0	484	513	
3	0	0	0	0	498	505	
4	0	0	0	0	509	499	
5	0	0	0	0	520	490	
6	0	0	0	0	539	480	
7	0	0	0	0	548	474	
8	0	0	0	0	551	475	
9	0	0	0	0	555	477	
10	0	0	0	0	551	479	
11	0	0	0	0	545	488	
12	0	0	0	0	535	498	
13	0	0	0	0	528	505	
14	0	0	0	0	515	518	
15	0	0	0	0	503	527	
0	0	0	0	0	491	535	
1	0	0	0	0	476	540	
2	0	0	0	0	472	539	
3	0	0	0	0	470	542	
4	0	0	0	0	465	538	
5	0	0	0	0	472	526	
6	0	0	0	0	487	516	
7	0	0	0	0	499	505	
8	0	0	0	0	512	497	
9	0	0	0	0	528	487	
10	0	0	0	0	540	478	
11	0	0	0	0	548	471	
12	0	0	0	0	550	473	
13	0	0	0	0	549	477	
14	0	0	0	0	550	480	
15	0	0	0	0	543	487	
0	0	0	0	0	533	497	
1	0	0	0	0	523	510	
2	0	0	0	0	512	519	
3	0	0	0	0	501	527	
4	0	0	0	0	485	534	
5	0	0	0	0	477	539	
6	0	0	0	0	472	540	
7	0	0	0	0	472	539	
8	0	0	0	0	471	534	
9	0	0	0	0	478	524	
10	0	0	0	0	488	514	
11	0	0	0	0	502	508	
12	0	0	0	0	512	496	
13	0	0	0	0	523	486	
14	0	0	0	0	536	478	
15	0	0	0	0	545	476	
0	0	0	0	0	554	476	
1	0	0	0	0	558	478	
2	0	0	0	0	556	482	
3	0	0	0	0	549	490	
4	0	0	0	0	533	499	
5	0	0	0	0	520	508	
6	0	0	0	0	511	518	
7	0	0	0	0	497	529	
8	0	0	0	0	483	536	
9	0	0	0	0	475	539	
10	0	0	0	0	473	540	
11	0	0	0	0	472	540	
12	0	0	0	0	474	537	
13	0	0	0	0	480	527	
14	0	0	0	0	490	516	
15	0	0	0	0	504	509	
0	0	0	0	0	513	496	
1	0	0	0	0	528	486	
2	0	0	0	0	543	477	
3	0	0	0	0	551	474	
4	0	0	0	0	549	474	
5	0	0	0	0	550	477	
6	0	0	0	0	546	478	
7	0	0	0	0	543	484	
8	0	0	0	0	533	496	
9	0	0	0	0	521	506	
10	0	0	0	0	507	515	
11	0	0	0	0	494	527	
12	0	0	0	0	483	536	
13	0	0	0	0	472	542	
14	0	0	0	0	471	543	
15	0	0	0	0	469	543	
0	0	0	0	0	469	537	
1	0	0	0	0	479	528	
2	0	0	0	0	494	516	
3	0	0	0	0	504	507	
4	0	0	0	0	513	495	
5	0	0	0	0	527	486	
6	0	0	0	0	539	478	
7	0	0	0	0	551	472	
8	0	0	0	0	550	473	
9	0	0	0	0	548	476	
10	0	0	0	0	549	477	
11	0	0	0	0	543	487	
12	0	0	0	0	534	499	
13	0	0	0	0	523	508	
14	0	0	0	0	512	520	
15	0	0	0	0	496	530	
0	0	0	0	0	483	540	
1	0	0	0	0	477	544	
2	0	0	0	0	471	545	
3	0	0	0	0	468	538	
4	0	0	0	0	470	535	
5	0	0	0	0	479	527	
6	0	0	0	0	496	512	
7	0	0	0	0	506	502	
8	0	0	0	0	514	496	
9	0	0	0	0	526	486	
10	0	0	0	0	539	478	
11	0	0	0	0	544	471	
12	0	0	0	0	550	473	
13	0	0	0	0	553	475	
14	0	0	0	0	549	477	
15	0	0	0	0	546	487	
0	0	0	0	0	532	499	
1	0	0	0	0	520	506	
2	0	0	0	0	509	518	
3	0	0	0	0	497	530	
4	0	0	0	0	484	540	
5	0	0	0	0	479	545	
6	0	0	0	0	474	541	
7	0	0	0	0	468	538	
8	0	0	0	0	469	533	
9	0	0	0	0	472	526	
10	0	0	0	0	486	515	
11	0	0	0	0	502	507	
12	0	0	0	0	514	497	
13	0	0	0	0	527	487	
14	0	0	0	0	536	478	
15	0	0	0	0	544	476	
0	0	0	0	0	549	474	
1	0	0	0	0	554	474	
2	0	0	0	0	557	477	
3	0	0	0	0	551	487	
4	0	0	0	0	539	500	
5	0	0	0	0	529	508	
6	0	0	0	0	518	516	
7	0	0	0	0	503	528	
8	0	0	0	0	485	537	
9	0	0	0	0	473	540	
10	0	0	0	0	471	540	
11	0	0	0	0	470	539	
12	0	0	0	0	465	535	
13	0	0	0	0	469	525	
14	0	0	0	0	487	515	
15	0	0	0	0	504	504	
0	0	0	0	0	514	497	
1	0	0	0	0	525	487	
2	0	0	0	0	538	481	
3	0	0	0	0	549	474	
4	0	0	0	0	555	475	
5	0	0	0	0	556	477	
6	0	0	0	0	556	480	
7	0	0	0	0	552	489	
8	0	0	0	0	535	500	
9	0	0	0	0	520	509	
10	0	0	0	0	507	518	
11	0	0	0	0	492	529	
12	0	0	0	0	480	536	
13	0	0	0	0	472	541	
14	0	0	0	0	472	540	
15	0	0	0	0	475	541	
0	0	0	0	0	471	538	
1	0	0	0	0	478	528	
2	0	0	0	0	488	516	
3	0	0	0	0	493	505	
4	0	0	0	0	503	496	
5	0	0	0	0	517	483	
6	0	0	0	0	534	476	
7	0	0	0	0	547	474	
8	0	0	0	0	555	473	
9	0	0	0	0	557	475	
10	0	0	0	0	554	476	
11	0	0	0	0	550	484	
12	0	0	0	0	540	497	
13	0	0	0	0	528	506	
14	0	0	0	0	517	515	
15	0	0	0	0	506	527	
0	0	0	0	0	497	538	
1	0	0	0	0	483	542	
2	0	0	0	0	480	538	
3	0	0	0	0	471	541	
4	0	0	0	0	468	539	
5	0	0	0	0	471	524	
6	0	0	0	0	485	513	
7	0	0	0	0	494	507	
8	0	0	0	0	504	498	
9	0	0	0	0	514	490	
10	0	0	0	0	526	480	
11	0	0	0	0	537	477	
12	0	0	0	0	548	476	
13	0	0	0	0	556	476	
14	0	0	0	0	560	480	
15	0	0	0	0	548	489	
0	0	0	0	0	540	502	
1	0	0	0	0	531	509	
2	0	0	0	0	515	516	
3	0	0	0	0	496	525	
4	0	0	0	0	480	533	
5	0	0	0	0	470	535	
6	0	0	0	0	466	536	
7	0	0	0	0	472	543	
8	0	0	0	0	471	538	
9	0	0	0	0	474	527	
10	0	0	0	0	486	514	
11	0	0	0	0	494	507	
12	0	0	0	0	504	499	
13	0	0	0	0	522	486	
14	0	0	0	0	536	478	
15	0	0	0	0	546	473	
0	0	0	0	0	555	475	
1	0	0	0	0	552	473	
2	0	0	0	0	552	477	
3	0	0	0	0	550	485	
4	0	0	0	0	534	498	
5	0	0	0	0	525	505	
6	0	0	0	0	514	517	
7	0	0	0	0	504	526	
8	0	0	0	0	494	537	
9	0	0	0	0	495	543	
10	0	0	0	0	487	546	
11	0	0	0	0	484	544	
12	0	0	0	0	476	539	
13	0	0	0	0	479	524	
14	0	0	0	0	487	511	
15	0	0	0	0	493	503	
0	0	0	0	0	499	496	
1	0	0	0	0	500	486	
2	0	0	0	0	514	479	
3	0	0	0	0	527	475	
4	0	0	0	0	542	476	
5	0	0	0	0	555	479	
6	0	0	0	0	561	482	
7	0	0	0	0	557	487	
8	0	0	0	0	549	498	
9	0	0	0	0	538	507	
10	0	0	0	0	520	519	
11	0	0	0	0	507	529	
12	0	0	0	0	489	539	
13	0	0	0	0	474	539	
14	0	0	0	0	472	538	
15	0	0	0	0	477	539	
0	0	0	0	0	471	534	
1	0	0	0	0	470	524	
2	0	0	0	0	480	517	
3	0	0	0	0	494	504	
4	0	0	0	0	512	498	
5	0	0	0	0	531	490	
6	0	0	0	0	547	483	
7	0	0	0	0	553	475	
8	0	0	0	0	548	473	
9	0	0	0	0	548	475	
10	0	0	0	0	552	479	
11	0	0	0	0	550	486	
12	0	0	0	0	538	498	
13	0	0	0	0	524	504	
14	0	0	0	0	509	513	
15	0	0	0	0	494	527	
0	0	0	0	0	480	537	
1	0	0	0	0	455	541	
2	0	0	0	0	447	541	
3	0	0	0	0	446	540	
4	0	0	0	0	449	539	
5	0	0	0	0	467	525	
6	0	0	0	0	493	516	
7	0	0	0	0	515	510	
8	0	0	0	0	525	499	
9	0	0	0	0	542	490	
10	0	0	0	0	553	478	
11	0	0	0	0	558	476	
12	0	0	0	0	558	476	
13	0	0	0	0	563	478	
14	0	0	0	0	556	478	
15	0	0	0	0	548	489	
0	0	0	0	0	524	493	
1	0	0	0	0	514	500	
2	0	0	0	0	510	511	
3	0	0	0	0	506	531	
4	0	0	0	0	489	542	
5	0	0	0	0	481	542	
6	0	0	0	0	477	538	
7	0	0	0	0	470	535	
8	0	0	0	0	473	534	
9	0	0	0	0	490	528	
10	0	0	0	0	503	521	
11	0	0	0	0	508	511	
12	0	0	0	0	516	500	
13	0	0	0	0	521	484	
14	0	0	0	0	538	478	
15	0	0	0	0	556	471	
0	0	0	0	0	552	474	
1	0	0	0	0	553	472	
2	0	0	0	0	560	477	
3	0	0	0	0	550	484	
4	0	0	0	0	529	495	
5	0	0	0	0	510	506	
6	0	0	0	0	500	519	
7	0	0	0	0	485	529	
8	0	0	0	0	472	536	
9	0	0	0	0	465	540	
10	0	0	0	0	455	543	
11	0	0	0	0	450	543	
12	0	0	0	0	451	535	
13	0	0	0	0	464	527	
14	0	0	0	0	487	515	
15	0	0	0	0	508	507	
0	0	0	0	0	518	498	
1	0	0	0	0	538	492	
2	0	0	0	0	552	482	
3	0	0	0	0	566	477	
4	0	0	0	0	571	478	
5	0	0	0	0	558	475	
6	0	0	0	0	558	479	
7	0	0	0	0	545	486	
8	0	0	0	0	524	494	
9	0	0	0	0	505	501	
10	0	0	0	0	490	512	
11	0	0	0	0	479	527	
12	0	0	0	0	469	537	
13	0	0	0	0	464	540	
14	0	0	0	0	469	540	
15	0	0	0	0	465	543	
0	0	0	0	0	472	542	
1	0	0	0	0	483	529	
2	0	0	0	0	495	517	
3	0	0	0	0	511	511	
4	0	0	0	0	533	497	
5	0	0	0	0	553	487	
6	0	0	0	0	563	474	
7	0	0	0	0	564	469	
8	0	0	0	0	561	472	
9	0	0	0	0	550	472	
10	0	0	0	0	538	477	
11	0	0	0	0	526	484	
12	0	0	0	0	519	494	
13	0	0	0	0	515	504	
14	0	0	0	0	512	517	
15	0	0	0	0	504	531	
0	0	0	0	0	492	540	
1	0	0	0	0	480	545	
2	0	0	0	0	475	544	
3	0	0	0	0	482	540	
4	0	0	0	0	474	536	
5	0	0	0	0	475	527	
6	0	0	0	0	496	516	
7	0	0	0	0	509	508	
8	0	0	0	0	516	498	
9	0	0	0	0	525	485	
10	0	0	0	0	540	480	
11	0	0	0	0	546	474	
12	0	0	0	0	542	474	
13	0	0	0	0	542	473	
14	0	0	0	0	547	479	
15	0	0	0	0	543	487	
0	0	0	0	0	529	501	
1	0	0	0	0	524	508	
2	0	0	0	0	518	518	
3	0	0	0	0	503	531	
4	0	0	0	0	490	539	
5	0	0	0	0	476	542	
6	0	0	0	0	468	540	
7	0	0	0	0	470	538	
8	0	0	0	0	473	532	
9	0	0	0	0	475	525	
10	0	0	0	0	485	514	
11	0	0	0	0	497	505	
12	0	0	0	0	503	494	
13	0	0	0	0	511	484	
14	0	0	0	0	530	479	
15	0	0	0	0	545	476	
0	0	0	0	0	554	476	
1	0	0	0	0	560	475	
2	0	0	0	0	557	476	
3	0	0	0	0	550	489	
4	0	0	0	0	543	502	
5	0	0	0	0	532	510	
6	0	0	0	0	520	518	
7	0	0	0	0	502	528	
8	0	0	0	0	494	539	
9	0	0	0	0	480	541	
10	0	0	0	0	474	538	
11	0	0	0	0	476	539	
12	0	0	0	0	476	536	
13	0	0	0	0	473	525	
14	0	0	0	0	473	513	
15	0	0	0	0	479	500	
0	0	0	0	0	499	496	
1	0	0	0	0	516	486	
2	0	0	0	0	532	482	
3	0	0	0	0	539	474	
4	0	0	0	0	548	476	
5	0	0	0	0	551	477	
6	0	0	0	0	557	478	
7	0	0	0	0	550	487	
8	0	0	0	0	536	496	
9	0	0	0	0	518	507	
10	0	0	0	0	512	520	
11	0	0	0	0	504	531	
12	0	0	0	0	494	540	
13	0	0	0	0	487	542	
14	0	0	0	0	482	541	
15	0	0	0	0	471	534	
0	0	0	0	0	467	529	
1	0	0	0	0	477	523	
2	0	0	0	0	487	511	
3	0	0	0	0	499	503	
4	0	0	0	0	514	499	
5	0	0	0	0	526	490	
6	0	0	0	0	539	479	
7	0	0	0	0	551	476	
8	0	0	0	0	556	477	
9	0	0	0	0	557	477	
10	0	0	0	0	558	480	
11	0	0	0	0	554	489	
12	0	0	0	0	544	503	
13	0	0	0	0	532	510	
14	0	0	0	0	513	517	
15	0	0	0	0	501	525	
0	0	0	0	0	486	537	
1	0	0	0	0	473	540	
2	0	0	0	0	462	537	
3	0	0	0	0	454	539	
4	0	0	0	0	451	535	
5	0	0	0	0	453	528	
6	0	0	0	0	460	515	
7	0	0	0	0	479	505	
8	0	0	0	0	505	500	
9	0	0	0	0	531	489	
10	0	0	0	0	540	477	
11	0	0	0	0	550	472	
12	0	0	0	0	560	473	
13	0	0	0	0	564	474	
14	0	0	0	0	560	478	
15	0	0	0	0	555	487	
0	0	0	0	0	544	497	
1	0	0	0	0	532	508	
2	0	0	0	0	521	518	
3	0	0	0	0	505	527	
4	0	0	0	0	488	537	
5	0	0	0	0	478	543	
6	0	0	0	0	471	543	
7	0	0	0	0	469	544	
8	0	0	0	0	459	535	
9	0	0	0	0	469	524	
10	0	0	0	0	488	517	
11	0	0	0	0	503	509	
12	0	0	0	0	514	495	
13	0	0	0	0	530	484	
14	0	0	0	0	541	476	
15	0	0	0	0	546	474	
0	0	0	0	0	547	475	
1	0	0	0	0	550	480	
2	0	0	0	0	551	479	
3	0	0	0	0	543	486	
4	0	0	0	0	533	501	
5	0	0	0	0	518	507	
6	0	0	0	0	510	513	
7	0	0	0	0	499	527	
8	0	0	0	0	483	536	
9	0	0	0	0	474	539	
10	0	0	0	0	472	540	
11	0	0	0	0	476	540	
12	0	0	0	0	473	537	
13	0	0	0	0	480	527	
14	0	0	0	0	493	516	
15	0	0	0	0	506	509	
0	0	0	0	0	516	500	
1	0	0	0	0	531	487	
2	0	0	0	0	540	477	
3	0	0	0	0	549	475	
4	0	0	0	0	553	474	
5	0	0	0	0	547	475	
6	0	0	0	0	549	477	
7	0	0	0	0	547	487	
8	0	0	0	0	530	496	
9	0	0	0	0	521	507	
10	0	0	0	0	510	518	
11	0	0	0	0	497	529	
12	0	0	0	0	479	543	
13	0	0	0	0	472	544	
14	0	0	0	0	470	540	
15	0	0	0	0	472	539	
0	0	0	0	0	472	536	
1	0	0	0	0	480	526	
2	0	0	0	0	491	512	
3	0	0	0	0	503	504	
4	0	0	0	0	513	497	
5	0	0	0	0	524	486	
6	0	0	0	0	540	476	
7	0	0	0	0	547	471	
8	0	0	0	0	547	473	
9	0	0	0	0	554	478	
10	0	0	0	0	558	479	
11	0	0	0	0	550	485	
12	0	0	0	0	538	498	
13	0	0	0	0	529	512	
14	0	0	0	0	521	519	
15	0	0	0	0	499	526	
0	0	0	0	0	483	535	
1	0	0	0	0	476	543	
2	0	0	0	0	468	543	
3	0	0	0	0	466	545	
4	0	0	0	0	467	538	
5	0	0	0	0	473	529	
6	0	0	0	0	484	517	
7	0	0	0	0	495	505	
8	0	0	0	0	504	494	
9	0	0	0	0	523	488	
10	0	0	0	0	535	477	
11	0	0	0	0	539	469	
12	0	0	0	0	544	468	
13	0	0	0	0	551	475	
14	0	0	0	0	551	479	
15	0	0	0	0	553	488	
0	0	0	0	0	536	493	
1	0	0	0	0	524	502	
2	0	0	0	0	511	515	
3	0	0	0	0	504	532	
4	0	0	0	0	490	538	
5	0	0	0	0	481	543	
6	0	0	0	0	477	543	
7	0	0	0	0	474	543	
8	0	0	0	0	472	537	
9	0	0	0	0	478	533	
10	0	0	0	0	491	519	
11	0	0	0	0	504	509	
12	0	0	0	0	517	500	
13	0	0	0	0	532	487	
14	0	0	0	0	546	476	
15	0	0	0	0	551	472	
0	0	0	0	0	550	475	
1	0	0	0	0	551	474	
2	0	0	0	0	556	473	
3	0	0	0	0	547	484	
4	0	0	0	0	530	496	
5	0	0	0	0	520	504	
6	0	0	0	0	513	517	
7	0	0	0	0	489	529	
8	0	0	0	0	473	537	
9	0	0	0	0	473	545	
10	0	0	0	0	475	545	
11	0	0	0	0	459	541	
12	0	0	0	0	452	533	
13	0	0	0	0	468	526	
14	0	0	0	0	486	513	
15	0	0	0	0	496	505	
0	0	0	0	0	510	495	
1	0	0	0	0	529	490	
2	0	0	0	0	549	483	
3	0	0	0	0	564	475	
4	0	0	0	0	569	474	
5	0	0	0	0	565	473	
6	0	0	0	0	564	476	
7	0	0	0	0	556	487	
8	0	0	0	0	545	500	
9	0	0	0	0	521	507	
10	0	0	0	0	494	514	
11	0	0	0	0	475	527	
12	0	0	0	0	467	539	
13	0	0	0	0	463	542	
14	0	0	0	0	464	540	
15	0	0	0	0	462	534	
0	0	0	0	0	464	531	
1	0	0	0	0	480	524	
2	0	0	0	0	494	514	
3	0	0	0	0	507	509	
4	0	0	0	0	517	495	
5	0	0	0	0	529	488	
6	0	0	0	0	539	482	
7	0	0	0	0	549	475	
8	0	0	0	0	558	477	
9	0	0	0	0	556	478	
10	0	0	0	0	558	480	
11	0	0	0	0	553	488	
12	0	0	0	0	536	499	
13	0	0	0	0	527	507	
14	0	0	0	0	511	516	
15	0	0	0	0	503	530	
0	0	0	0	0	494	539	
1	0	0	0	0	494	543	
2	0	0	0	0	489	546	
3	0	0	0	0	481	544	
4	0	0	0	0	476	537	
5	0	0	0	0	477	528	
6	0	0	0	0	473	511	
7	0	0	0	0	474	494	
8	0	0	0	0	476	487	
9	0	0	0	0	487	477	
10	0	0	0	0	519	474	
11	0	0	0	0	542	477	
12	0	0	0	0	555	478	
13	0	0	0	0	553	478	
14	0	0	0	0	553	477	
15	0	0	0	0	554	483	
0	0	0	0	0	546	497	
1	0	0	0	0	533	507	
2	0	0	0	0	522	517	
3	0	0	0	0	508	531	
4	0	0	0	0	492	539	
5	0	0	0	0	478	542	
6	0	0	0	0	473	544	
7	0	0	0	0	472	544	
8	0	0	0	0	472	542	
9	0	0	0	0	482	531	
10	0	0	0	0	494	518	
11	0	0	0	0	501	508	
12	0	0	0	0	512	496	
13	0	0	0	0	523	480	
14	0	0	0	0	543	476	
15	0	0	0	0	549	470	
0	0	0	0	0	546	470	
1	0	0	0	0	534	470	
2	0	0	0	0	539	472	
3	0	0	0	0	543	483	
4	0	0	0	0	537	497	
5	0	0	0	0	528	509	
6	0	0	0	0	517	523	
7	0	0	0	0	504	533	
8	0	0	0	0	488	539	
9	0	0	0	0	478	544	
10	0	0	0	0	472	544	
11	0	0	0	0	472	542	
12	0	0	0	0	469	536	
13	0	0	0	0	474	526	
14	0	0	0	0	488	515	
15	0	0	0	0	502	508	
0	0	0	0	0	517	499	
1	0	0	0	0	530	486	
2	0	0	0	0	542	479	
3	0	0	0	0	551	476	
4	0	0	0	0	556	474	
5	0	0	0	0	558	477	
6	0	0	0	0	560	476	
7	0	0	0	0	545	486	
8	0	0	0	0	529	496	
9	0	0	0	0	525	505	
10	0	0	0	0	509	514	
11	0	0	0	0	492	524	
12	0	0	0	0	472	538	
13	0	0	0	0	457	540	
14	0	0	0	0	455	540	
15	0	0	0	0	465	541	
0	0	0	0	0	472	537	
1	0	0	0	0	481	529	
2	0	0	0	0	496	517	
3	0	0	0	0	505	510	
4	0	0	0	0	512	499	
5	0	0	0	0	527	489	
6	0	0	0	0	547	476	
7	0	0	0	0	558	470	
8	0	0	0	0	558	472	
9	0	0	0	0	554	473	
10	0	0	0	0	553	478	
11	0	0	0	0	550	487	
12	0	0	0	0	544	501	
13	0	0	0	0	531	510	
14	0	0	0	0	515	522	
15	0	0	0	0	499	532	
0	0	0	0	0	485	537	
1	0	0	0	0	468	538	
2	0	0	0	0	446	529	
3	0	0	0	0	450	530	
4	0	0	0	0	455	531	
5	0	0	0	0	477	528	
6	0	0	0	0	490	515	
7	0	0	0	0	500	510	
8	0	0	0	0	511	502	
9	0	0	0	0	523	488	
10	0	0	0	0	539	482	
11	0	0	0	0	553	476	
12	0	0	0	0	558	474	
13	0	0	0	0	563	476	
14	0	0	0	0	560	477	
15	0	0	0	0	552	486	
0	0	0	0	0	540	503	
1	0	0	0	0	531	513	
2	0	0	0	0	521	521	
3	0	0	0	0	510	533	
4	0	0	0	0	497	545	
5	0	0	0	0	492	545	
6	0	0	0	0	491	549	
7	0	0	0	0	473	542	
8	0	0	0	0	455	534	
9	0	0	0	0	456	518	
10	0	0	0	0	462	505	
11	0	0	0	0	454	489	
12	0	0	0	0	473	483	
13	0	0	0	0	499	470	
14	0	0	0	0	526	472	
15	0	0	0	0	556	479	
0	0	0	0	0	568	478	
1	0	0	0	0	569	478	
2	0	0	0	0	564	478	
3	0	0	0	0	556	489	
4	0	0	0	0	545	501	
5	0	0	0	0	536	513	
6	0	0	0	0	521	523	
7	0	0	0	0	508	533	
8	0	0	0	0	493	541	
9	0	0	0	0	489	544	
10	0	0	0	0	486	545	
11	0	0	0	0	465	545	
12	0	0	0	0	463	540	
13	0	0	0	0	476	532	
14	0	0	0	0	493	515	
15	0	0	0	0	505	505	
0	0	0	0	0	502	489	
1	0	0	0	0	519	480	
2	0	0	0	0	545	480	
3	0	0	0	0	552	472	
4	0	0	0	0	550	467	
5	0	0	0	0	540	474	
6	0	0	0	0	524	472	
7	0	0	0	0	527	484	
8	0	0	0	0	526	500	
9	0	0	0	0	518	508	
10	0	0	0	0	519	519	
11	0	0	0	0	504	530	
12	0	0	0	0	489	540	
13	0	0	0	0	475	541	
14	0	0	0	0	472	541	
15	0	0	0	0	474	542	
0	0	0	0	0	473	537	
1	0	0	0	0	483	531	
2	0	0	0	0	492	515	
3	0	0	0	0	507	507	
4	0	0	0	0	515	497	
5	0	0	0	0	529	486	
6	0	0	0	0	542	479	
7	0	0	0	0	553	471	
8	0	0	0	0	561	474	
9	0	0	0	0	557	475	
10	0	0	0	0	551	481	
11	0	0	0	0	545	487	
12	0	0	0	0	534	500	
13	0	0	0	0	519	508	
14	0	0	0	0	495	515	
15	0	0	0	0	487	529	
0	0	0	0	0	484	539	
1	0	0	0	0	477	541	
2	0	0	0	0	472	540	
3	0	0	0	0	469	540	
4	0	0	0	0	469	536	
5	0	0	0	0	480	527	
6	0	0	0	0	492	512	
7	0	0	0	0	500	504	
8	0	0	0	0	511	496	
9	0	0	0	0	527	487	
10	0	0	0	0	539	479	
11	0	0	0	0	551	475	
12	0	0	0	0	553	475	
13	0	0	0	0	556	477	
14	0	0	0	0	560	479	
15	0	0	0	0	553	485	
0	0	0	0	0	539	499	
1	0	0	0	0	530	510	
2	0	0	0	0	519	517	
3	0	0	0	0	486	526	
4	0	0	0	0	486	541	
5	0	0	0	0	478	546	
6	0	0	0	0	468	544	
7	0	0	0	0	452	540	
8	0	0	0	0	458	537	
9	0	0	0	0	467	526	
10	0	0	0	0	476	509	
11	0	0	0	0	482	496	
12	0	0	0	0	507	493	
13	0	0	0	0	526	486	
14	0	0	0	0	543	482	
15	0	0	0	0	551	476	
0	0	0	0	0	556	473	
1	0	0	0	0	567	476	
2	0	0	0	0	562	478	
3	0	0	0	0	556	485	
4	0	0	0	0	536	496	
5	0	0	0	0	531	509	
6	0	0	0	0	524	522	
7	0	0	0	0	511	536	
8	0	0	0	0	500	545	
9	0	0	0	0	477	544	
10	0	0	0	0	474	539	
11	0	0	0	0	465	533	
12	0	0	0	0	453	527	
13	0	0	0	0	468	522	
14	0	0	0	0	482	507	
15	0	0	0	0	496	500	
0	0	0	0	0	508	496	
1	0	0	0	0	515	483	
2	0	0	0	0	529	480	
3	0	0	0	0	530	474	
4	0	0	0	0	551	477	
5	0	0	0	0	571	483	
6	0	0	0	0	572	487	
7	0	0	0	0	562	492	
8	0	0	0	0	535	502	
9	0	0	0	0	523	512	
10	0	0	0	0	521	520	
11	0	0	0	0	509	531	
12	0	0	0	0	484	536	
13	0	0	0	0	464	537	
14	0	0	0	0	447	532	
15	0	0	0	0	447	532	
0	0	0	0	0	450	533	
1	0	0	0	0	473	528	
2	0	0	0	0	489	516	
3	0	0	0	0	500	507	
4	0	0	0	0	515	499	
5	0	0	0	0	546	490	
6	0	0	0	0	565	484	
7	0	0	0	0	574	487	
8	0	0	0	0	566	481	
9	0	0	0	0	565	478	
10	0	0	0	0	554	472	
11	0	0	0	0	515	469	
12	0	0	0	0	503	481	
13	0	0	0	0	523	503	
14	0	0	0	0	516	520	
15	0	0	0	0	494	526	
0	0	0	0	0	480	535	
1	0	0	0	0	458	539	
2	0	0	0	0	462	537	
3	0	0	0	0	472	538	
4	0	0	0	0	470	540	
5	0	0	0	0	476	531	
6	0	0	0	0	493	518	
7	0	0	0	0	515	509	
8	0	0	0	0	519	502	
9	0	0	0	0	529	488	
10	0	0	0	0	544	479	
11	0	0	0	0	556	475	
12	0	0	0	0	560	481	
13	0	0	0	0	540	474	
14	0	0	0	0	559	481	
15	0	0	0	0	551	493	
0	0	0	0	0	536	508	
1	0	0	0	0	521	512	
2	0	0	0	0	501	511	
3	0	0	0	0	501	522	
4	0	0	0	0	482	531	
5	0	0	0	0	462	529	
6	0	0	0	0	475	532	
7	0	0	0	0	465	529	
8	0	0	0	0	464	533	
9	0	0	0	0	478	527	
10	0	0	0	0	492	517	
11	0	0	0	0	509	511	
12	0	0	0	0	522	504	
13	0	0	0	0	526	490	
14	0	0	0	0	528	483	
15	0	0	0	0	550	476	
0	0	0	0	0	551	472	
1	0	0	0	0	551	475	
2	0	0	0	0	567	481	
3	0	0	0	0	556	486	
4	0	0	0	0	546	502	
5	0	0	0	0	540	510	
6	0	0	0	0	523	514	
7	0	0	0	0	489	519	
8	0	0	0	0	448	522	
9	0	0	0	0	436	534	
10	0	0	0	0	445	534	
11	0	0	0	0	464	542	
12	0	0	0	0	465	544	
13	0	0	0	0	480	529	
14	0	0	0	0	508	519	
15	0	0	0	0	503	502	
0	0	0	0	0	503	489	
1	0	0	0	0	536	489	
2	0	0	0	0	551	481	
3	0	0	0	0	556	481	
4	0	0	0	0	558	475	
5	0	0	0	0	572	480	
6	0	0	0	0	565	480	
7	0	0	0	0	542	482	
8	0	0	0	0	512	491	
9	0	0	0	0	521	509	
10	0	0	0	0	511	522	
11	0	0	0	0	492	530	
12	0	0	0	0	484	542	
13	0	0	0	0	493	548	
14	0	0	0	0	484	548	
15	0	0	0	0	469	541	
0	0	0	0	0	451	534	
1	0	0	0	0	453	527	
2	0	0	0	0	487	520	
3	0	0	0	0	509	513	
4	0	0	0	0	542	500	
5	0	0	0	0	545	491	
6	0	0	0	0	528	473	
7	0	0	0	0	531	465	
8	0	0	0	0	542	476	
9	0	0	0	0	543	482	
10	0	0	0	0	525	470	
11	0	0	0	0	530	476	
12	0	0	0	0	539	496	
13	0	0	0	0	531	505	
14	0	0	0	0	525	519	
15	0	0	0	0	510	531	
0	0	0	0	0	481	536	
1	0	0	0	0	462	535	
2	0	0	0	0	462	536	
3	0	0	0	0	475	539	
4	0	0	0	0	485	540	
5	0	0	0	0	502	536	
6	0	0	0	0	495	521	
7	0	0	0	0	502	510	
8	0	0	0	0	546	504	
9	0	0	0	0	544	483	
10	0	0	0	0	523	475	
11	0	0	0	0	521	475	
12	0	0	0	0	516	470	
13	0	0	0	0	542	476	
14	0	0	0	0	543	475	
15	0	0	0	0	553	480	
0	0	0	0	0	551	503	
1	0	0	0	0	541	510	
2	0	0	0	0	491	512	
3	0	0	0	0	459	522	
4	0	0	0	0	461	539	
5	0	0	0	0	469	542	
6	0	0	0	0	484	544	
7	0	0	0	0	487	540	
8	0	0	0	0	483	532	
9	0	0	0	0	487	524	
10	0	0	0	0	498	514	
11	0	0	0	0	519	511	
12	0	0	0	0	542	511	
13	0	0	0	0	550	502	
14	0	0	0	0	563	485	
15	0	0	0	0	561	475	
0	0	0	0	0	537	470	
1	0	0	0	0	522	466	
2	0	0	0	0	513	477	
3	0	0	0	0	512	492	
4	0	0	0	0	534	504	
5	0	0	0	0	532	510	
6	0	0	0	0	516	510	
7	0	0	0	0	488	519	
8	0	0	0	0	488	538	
9	0	0	0	0	485	547	
10	0	0	0	0	470	541	
11	0	0	0	0	456	542	
12	0	0	0	0	451	540	
13	0	0	0	0	475	526	
14	0	0	0	0	490	507	
15	0	0	0	0	494	492	
0	0	0	0	0	506	487	
1	0	0	0	0	532	481	
2	0	0	0	0	553	483	
3	0	0	0	0	529	471	
4	0	0	0	0	514	463	
5	0	0	0	0	554	476	
6	0	0	0	0	563	481	
7	0	0	0	0	564	488	
8	0	0	0	0	563	501	
9	0	0	0	0	560	520	
10	0	0	0	0	546	538	
11	0	0	0	0	519	549	
12	0	0	0	0	492	559	
13	0	0	0	0	469	552	
14	0	0	0	0	443	520	
15	0	0	0	0	472	518	
0	0	0	0	0	473	524	
1	0	0	0	0	456	518	
2	0	0	0	0	437	506	
3	0	0	0	0	453	497	
4	0	0	0	0	497	491	
5	0	0	0	0	530	483	
6	0	0	0	0	563	478	
7	0	0	0	0	579	476	
8	0	0	0	0	586	483	
9	0	0	0	0	587	492	
10	0	0	0	0	577	503	
11	0	0	0	0	558	503	
12	0	0	0	0	536	505	
13	0	0	0	0	498	496	
14	0	0	0	0	472	507	
15	0	0	0	0	451	515	
0	0	0	0	0	471	539	
1	0	0	0	0	480	551	
2	0	0	0	0	495	548	
3	0	0	0	0	483	538	
4	0	0	0	0	465	525	
5	0	0	0	0	466	518	
6	0	0	0	0	462	504	
7	0	0	0	0	499	494	
8	0	0	0	0	507	491	
9	0	0	0	0	512	485	
10	0	0	0	0	527	478	
11	0	0	0	0	561	476	
12	0	0	0	0	565	473	
13	0	0	0	0	558	479	
14	0	0	0	0	577	483	
15	0	0	0	0	570	490	
0	0	0	0	0	536	499	
1	0	0	0	0	518	508	
2	0	0	0	0	517	521	
3	0	0	0	0	515	535	
4	0	0	0	0	513	549	
5	0	0	0	0	492	555	
6	0	0	0	0	461	545	
7	0	0	0	0	460	540	
8	0	0	0	0	473	523	
9	0	0	0	0	443	506	
10	0	0	0	0	430	487	
11	0	0	0	0	483	498	
12	0	0	0	0	507	499	
13	0	0	0	0	502	490	
14	0	0	0	0	540	486	
15	0	0	0	0	555	475	
0	0	0	0	0	573	467	
1	0	0	0	0	583	471	
2	0	0	0	0	570	482	
3	0	0	0	0	579	498	
4	0	0	0	0	563	517	
5	0	0	0	0	557	539	
6	0	0	0	0	527	541	
7	0	0	0	0	532	544	
8	0	0	0	0	488	525	
9	0	0	0	0	460	526	
10	0	0	0	0	454	530	
11	0	0	0	0	460	528	
12	0	0	0	0	442	518	
13	0	0	0	0	446	522	
14	0	0	0	0	481	514	
15	0	0	0	0	532	515	
0	0	0	0	0	515	507	
1	0	0	0	0	504	489	
2	0	0	0	0	492	469	
3	0	0	0	0	541	467	
4	0	0	0	0	517	465	
5	0	0	0	0	504	469	
6	0	0	0	0	537	479	
7	0	0	0	0	522	478	
8	0	0	0	0	510	494	
9	0	0	0	0	521	502	
10	0	0	0	0	547	520	
11	0	0	0	0	534	537	
12	0	0	0	0	507	540	
13	0	0	0	0	457	535	
14	0	0	0	0	457	546	
15	0	0	0	0	461	537	
0	0	0	0	0	477	542	
1	0	0	0	0	482	515	
2	0	0	0	0	524	519	
3	0	0	0	0	549	529	
4	0	0	0	0	567	521	
5	0	0	0	0	575	495	
6	0	0	0	0	558	472	
7	0	0	0	0	548	458	
8	0	0	0	0	513	465	
9	0	0	0	0	498	474	
10	0	0	0	0	540	481	
11	0	0	0	0	507	476	
12	0	0	0	0	492	486	
13	0	0	0	0	531	501	
14	0	0	0	0	525	520	
15	0	0	0	0	485	525	
0	0	0	0	0	461	535	
1	0	0	0	0	468	536	
2	0	0	0	0	476	540	
3	0	0	0	0	495	552	
4	0	0	0	0	473	539	
5	0	0	0	0	439	522	
6	0	0	0	0	478	523	
7	0	0	0	0	499	523	
8	0	0	0	0	502	502	
9	0	0	0	0	549	483	
10	0	0	0	0	575	477	
11	0	0	0	0	572	474	
12	0	0	0	0	594	480	
13	0	0	0	0	602	478	
14	0	0	0	0	584	482	
15	0	0	0	0	553	485	
0	0	0	0	0	520	492	
1	0	0	0	0	503	505	
2	0	0	0	0	489	507	
3	0	0	0	0	468	521	
4	0	0	0	0	463	528	
5	0	0	0	0	489	534	
6	0	0	0	0	446	540	
7	0	0	0	0	425	545	
8	0	0	0	0	468	546	
9	0	0	0	0	492	538	
10	0	0	0	0	504	526	
11	0	0	0	0	511	511	
12	0	0	0	0	504	492	
13	0	0	0	0	501	475	
14	0	0	0	0	522	463	
15	0	0	0	0	548	470	
0	0	0	0	0	568	479	
1	0	0	0	0	548	480	
2	0	0	0	0	540	484	
3	0	0	0	0	530	484	
4	0	0	0	0	579	501	
5	0	0	0	0	542	510	
6	0	0	0	0	528	521	
7	0	0	0	0	509	526	
8	0	0	0	0	512	544	
9	0	0	0	0	507	556	
10	0	0	0	0	508	555	
11	0	0	0	0	477	536	
12	0	0	0	0	451	516	
13	0	0	0	0	453	516	
14	0	0	0	0	467	523	
15	0	0	0	0	497	518	
0	0	0	0	0	527	505	
1	0	0	0	0	547	490	
2	0	0	0	0	538	471	
3	0	0	0	0	542	463	
4	0	0	0	0	539	462	
5	0	0	0	0	511	466	
6	0	0	0	0	489	473	
7	0	0	0	0	511	481	
8	0	0	0	0	510	496	
9	0	0	0	0	516	514	
10	0	0	0	0	545	527	
11	0	0	0	0	541	536	
12	0	0	0	0	533	550	
13	0	0	0	0	549	559	
14	0	0	0	0	547	556	
15	0	0	0	0	504	540	
0	0	0	0	0	498	531	
1	0	0	0	0	441	501	
2	0	0	0	0	473	496	
3	0	0	0	0	436	472	
4	0	0	0	0	504	497	
5	0	0	0	0	555	495	
6	0	0	0	0	543	488	
7	0	0	0	0	518	479	
8	0	0	0	0	512	470	
9	0	0	0	0	527	475	
10	0	0	0	0	494	483	
11	0	0	0	0	481	499	
12	0	0	0	0	486	504	
13	0	0	0	0	520	521	
14	0	0	0	0	543	547	
15	0	0	0	0	513	555	
0	0	0	0	0	481	537	
1	0	0	0	0	429	513	
2	0	0	0	0	467	511	
3	0	0	0	0	490	528	
4	0	0	0	0	451	531	
5	0	0	0	0	476	527	
6	0	0	0	0	484	518	
7	0	0	0	0	511	507	
8	0	0	0	0	571	490	
9	0	0	0	0	636	480	
10	0	0	0	0	666	472	
11	0	0	0	0	704	478	
12	0	0	0	0	667	475	
13	0	0	0	0	572	480	
14	0	0	0	0	504	485	
15	0	0	0	0	423	474	
0	0	0	0	0	362	492	
1	0	0	0	0	371	506	
2	0	0	0	0	396	517	
3	0	0	0	0	451	536	
4	0	0	0	0	449	543	
5	0	0	0	0	462	539	
6	0	0	0	0	508	539	
7	0	0	0	0	556	540	
8	0	0	0	0	614	551	
9	0	0	0	0	645	557	
10	0	0	0	0	600	533	
11	0	0	0	0	538	508	
12	0	0	0	0	471	488	
13	0	0	0	0	462	473	
14	0	0	0	0	426	466	
15	0	0	0	0	344	460	
0	0	0	0	0	440	461	
1	0	0	0	0	531	473	
2	0	0	0	0	572	481	
3	0	0	0	0	574	488	
4	0	0	0	0	531	497	
5	0	0	0	0	522	503	
6	0	0	0	0	512	507	
7	0	0	0	0	526	522	
8	0	0	0	0	495	529	
9	0	0	0	0	496	543	
10	0	0	0	0	527	556	
11	0	0	0	0	510	540	
12	0	0	0	0	535	540	
13	0	0	0	0	527	536	
14	0	0	0	0	494	522	
15	0	0	0	0	491	514	
0	0	0	0	0	508	515	
1	0	0	0	0	533	513	
2	0	0	0	0	525	480	
3	0	0	0	0	534	471	
4	0	0	0	0	500	462	
5	0	0	0	0	445	451	
6	0	0	0	0	511	461	
7	0	0	0	0	511	465	
8	0	0	0	0	513	491	
9	0	0	0	0	503	504	
10	0	0	0	0	510	509	
11	0	0	0	0	535	528	
12	0	0	0	0	536	539	
13	0	0	0	0	549	543	
14	0	0	0	0	553	544	
15	0	0	0	0	540	544	
0	0	0	0	0	528	547	
1	0	0	0	0	484	538	
2	0	0	0	0	454	524	
3	0	0	0	0	500	522	
4	0	0	0	0	538	518	
5	0	0	0	0	503	495	
6	0	0	0	0	519	469	
7	0	0	0	0	563	465	
8	0	0	0	0	533	477	
9	0	0	0	0	520	471	
10	0	0	0	0	552	459	
11	0	0	0	0	527	468	
12	0	0	0	0	522	488	
13	0	0	0	0	554	511	
14	0	0	0	0	516	519	
15	0	0	0	0	432	525	
0	0	0	0	0	392	533	
1	0	0	0	0	440	540	
2	0	0	0	0	452	539	
3	0	0	0	0	436	540	
4	0	0	0	0	457	533	
5	0	0	0	0	494	538	
6	0	0	0	0	518	522	
7	0	0	0	0	542	516	
8	0	0	0	0	546	505	
9	0	0	0	0	553	492	
10	0	0	0	0	552	481	
11	0	0	0	0	552	470	
12	0	0	0	0	548	476	
13	0	0	0	0	546	474	
14	0	0	0	0	545	475	
15	0	0	0	0	557	484	
0	0	0	0	0	566	507	
1	0	0	0	0	556	507	
2	0	0	0	0	529	511	
3	0	0	0	0	482	516	
4	0	0	0	0	466	528	
5	0	0	0	0	469	542	
6	0	0	0	0	473	545	
7	0	0	0	0	470	543	
8	0	0	0	0	470	538	
9	0	0	0	0	469	527	
10	0	0	0	0	487	516	
11	0	0	0	0	502	504	
12	0	0	0	0	519	495	
13	0	0	0	0	545	488	
14	0	0	0	0	556	477	
15	0	0	0	0	562	475	
0	0	0	0	0	556	476	
1	0	0	0	0	556	478	
2	0	0	0	0	544	480	
3	0	0	0	0	536	486	
4	0	0	0	0	540	498	
5	0	0	0	0	522	510	
6	0	0	0	0	499	518	
7	0	0	0	0	473	526	
8	0	0	0	0	442	537	
9	0	0	0	0	454	542	
10	0	0	0	0	457	539	
11	0	0	0	0	472	542	
12	0	0	0	0	493	537	
13	0	0	0	0	499	527	
14	0	0	0	0	510	517	
15	0	0	0	0	520	511	
0	0	0	0	0	529	503	
1	0	0	0	0	530	489	
2	0	0	0	0	537	480	
3	0	0	0	0	528	467	
4	0	0	0	0	534	467	
5	0	0	0	0	546	470	
6	0	0	0	0	544	476	
7	0	0	0	0	534	486	
8	0	0	0	0	527	500	
9	0	0	0	0	529	507	
10	0	0	0	0	516	516	
11	0	0	0	0	504	527	
12	0	0	0	0	494	540	
13	0	0	0	0	484	544	
14	0	0	0	0	482	540	
15	0	0	0	0	477	541	
0	0	0	0	0	474	536	
1	0	0	0	0	479	528	
2	0	0	0	0	478	516	
3	0	0	0	0	489	507	
4	0	0	0	0	502	497	
5	0	0	0	0	523	488	
6	0	0	0	0	544	479	
7	0	0	0	0	556	474	
8	0	0	0	0	566	474	
9	0	0	0	0	560	474	
10	0	0	0	0	536	475	
11	0	0	0	0	531	483	
12	0	0	0	0	536	499	
13	0	0	0	0	524	511	
14	0	0	0	0	510	521	
15	0	0	0	0	509	531	
0	0	0	0	0	512	539	
1	0	0	0	0	482	541	
2	0	0	0	0	460	540	
3	0	0	0	0	447	538	
4	0	0	0	0	452	534	
5	0	0	0	0	468	525	
6	0	0	0	0	486	512	
7	0	0	0	0	506	508	
8	0	0	0	0	515	499	
9	0	0	0	0	529	486	
10	0	0	0	0	526	478	
11	0	0	0	0	540	471	
12	0	0	0	0	549	473	
13	0	0	0	0	550	475	
14	0	0	0	0	553	479	
15	0	0	0	0	551	486	
0	0	0	0	0	539	498	
1	0	0	0	0	529	508	
2	0	0	0	0	520	517	
3	0	0	0	0	513	532	
4	0	0	0	0	498	545	
5	0	0	0	0	481	547	
6	0	0	0	0	473	548	
7	0	0	0	0	468	547	
8	0	0	0	0	457	535	
9	0	0	0	0	460	523	
10	0	0	0	0	482	507	
11	0	0	0	0	495	497	
12	0	0	0	0	504	497	
13	0	0	0	0	517	492	
14	0	0	0	0	536	483	
15	0	0	0	0	547	487	
0	0	0	0	0	555	486	
1	0	0	0	0	559	484	
2	0	0	0	0	552	475	
3	0	0	0	0	542	477	
4	0	0	0	0	530	493	
5	0	0	0	0	522	509	
6	0	0	0	0	519	509	
7	0	0	0	0	507	507	
8	0	0	0	0	497	516	
9	0	0	0	0	491	525	
10	0	0	0	0	486	536	
11	0	0	0	0	472	542	
12	0	0	0	0	470	544	
13	0	0	0	0	481	540	
14	0	0	0	0	496	525	
15	0	0	0	0	508	511	
0	0	0	0	0	516	499	
1	0	0	0	0	524	488	
2	0	0	0	0	536	477	
3	0	0	0	0	537	485	
4	0	0	0	0	540	491	
5	0	0	0	0	547	496	
6	0	0	0	0	553	495	
7	0	0	0	0	546	496	
8	0	0	0	0	535	500	
9	0	0	0	0	522	505	
10	0	0	0	0	508	507	
11	0	0	0	0	491	521	
12	0	0	0	0	475	525	
13	0	0	0	0	470	535	
14	0	0	0	0	469	535	
15	0	0	0	0	471	528	
0	0	0	0	0	465	528	
1	0	0	0	0	471	513	
2	0	0	0	0	483	505	
3	0	0	0	0	496	503	
4	0	0	0	0	513	492	
5	0	0	0	0	534	470	
6	0	0	0	0	549	460	
7	0	0	0	0	568	475	
8	0	0	0	0	572	484	
9	0	0	0	0	567	483	
10	0	0	0	0	560	485	
11	0	0	0	0	549	492	
12	0	0	0	0	534	505	
13	0	0	0	0	519	517	
14	0	0	0	0	506	523	
15	0	0	0	0	491	540	
0	0	0	0	0	476	554	
1	0	0	0	0	465	548	
2	0	0	0	0	459	550	
3	0	0	0	0	456	562	
4	0	0	0	0	461	556	
5	0	0	0	0	468	538	
6	0	0	0	0	487	524	
7	0	0	0	0	503	509	
8	0	0	0	0	512	482	
9	0	0	0	0	524	448	
10	0	0	0	0	529	431	
11	0	0	0	0	539	424	
12	0	0	0	0	550	439	
13	0	0	0	0	562	454	
14	0	0	0	0	568	480	
15	0	0	0	0	568	514	
0	0	0	0	0	564	536	
1	0	0	0	0	548	537	
2	0	0	0	0	519	526	
3	0	0	0	0	495	529	
4	0	0	0	0	476	537	
5	0	0	0	0	468	548	
6	0	0	0	0	469	543	
7	0	0	0	0	466	526	
8	0	0	0	0	466	527	
9	0	0	0	0	471	532	
10	0	0	0	0	485	522	
11	0	0	0	0	500	509	
12	0	0	0	0	508	507	
13	0	0	0	0	518	489	
14	0	0	0	0	529	472	
15	0	0	0	0	537	461	
0	0	0	0	0	541	467	
1	0	0	0	0	549	476	
2	0	0	0	0	553	485	
3	0	0	0	0	548	491	
4	0	0	0	0	534	500	
5	0	0	0	0	524	508	
6	0	0	0	0	515	519	
7	0	0	0	0	505	533	
8	0	0	0	0	495	544	
9	0	0	0	0	489	545	
10	0	0	0	0	481	536	
11	0	0	0	0	474	525	
12	0	0	0	0	466	513	
13	0	0	0	0	472	512	
14	0	0	0	0	481	510	
15	0	0	0	0	499	512	
0	0	0	0	0	513	509	
1	0	0	0	0	532	501	
2	0	0	0	0	540	491	
3	0	0	0	0	546	481	
4	0	0	0	0	549	478	
5	0	0	0	0	551	475	
6	0	0	0	0	550	476	
7	0	0	0	0	545	482	
8	0	0	0	0	534	494	
9	0	0	0	0	524	503	
10	0	0	0	0	512	514	
11	0	0	0	0	498	524	
12	0	0	0	0	483	540	
13	0	0	0	0	467	551	
14	0	0	0	0	464	551	
15	0	0	0	0	464	547	
0	0	0	0	0	463	542	
1	0	0	0	0	471	529	
2	0	0	0	0	489	513	
3	0	0	0	0	499	499	
4	0	0	0	0	510	496	
5	0	0	0	0	524	489	
6	0	0	0	0	535	472	
7	0	0	0	0	544	463	
8	0	0	0	0	551	461	
9	0	0	0	0	552	458	
10	0	0	0	0	561	461	
11	0	0	0	0	560	489	
12	0	0	0	0	548	508	
13	0	0	0	0	535	514	
14	0	0	0	0	520	520	
15	0	0	0	0	505	532	
0	0	0	0	0	485	538	
1	0	0	0	0	471	537	
2	0	0	0	0	464	547	
3	0	0	0	0	464	547	
4	0	0	0	0	467	542	
5	0	0	0	0	472	526	
6	0	0	0	0	488	516	
7	0	0	0	0	500	512	
8	0	0	0	0	511	500	
9	0	0	0	0	524	482	
10	0	0	0	0	537	477	
11	0	0	0	0	551	476	
12	0	0	0	0	556	472	
13	0	0	0	0	553	472	
14	0	0	0	0	547	469	
15	0	0	0	0	538	484	
0	0	0	0	0	531	500	
1	0	0	0	0	522	509	
2	0	0	0	0	514	518	
3	0	0	0	0	503	510	
4	0	0	0	0	489	525	
5	0	0	0	0	478	544	
6	0	0	0	0	475	551	
7	0	0	0	0	475	547	
8	0	0	0	0	476	543	
9	0	0	0	0	483	540	
10	0	0	0	0	488	523	
11	0	0	0	0	501	511	
12	0	0	0	0	513	498	
13	0	0	0	0	523	482	
14	0	0	0	0	532	472	
15	0	0	0	0	544	470	
0	0	0	0	0	545	464	
1	0	0	0	0	550	468	
2	0	0	0	0	550	473	
3	0	0	0	0	546	483	
4	0	0	0	0	537	500	
5	0	0	0	0	530	515	
6	0	0	0	0	517	524	
7	0	0	0	0	503	528	
8	0	0	0	0	489	535	
9	0	0	0	0	483	542	
10	0	0	0	0	480	543	
11	0	0	0	0	478	538	
12	0	0	0	0	475	531	
13	0	0	0	0	475	526	
14	0	0	0	0	484	514	
15	0	0	0	0	495	509	
0	0	0	0	0	509	500	
1	0	0	0	0	525	486	
2	0	0	0	0	537	479	
3	0	0	0	0	546	474	
4	0	0	0	0	552	475	
5	0	0	0	0	551	480	
6	0	0	0	0	547	480	
7	0	0	0	0	543	487	
8	0	0	0	0	533	500	
9	0	0	0	0	527	514	
10	0	0	0	0	515	525	
11	0	0	0	0	501	533	
12	0	0	0	0	486	536	
13	0	0	0	0	476	532	
14	0	0	0	0	469	523	
15	0	0	0	0	475	525	
0	0	0	0	0	475	529	
1	0	0	0	0	472	522	
2	0	0	0	0	485	519	
3	0	0	0	0	498	513	
4	0	0	0	0	513	499	
5	0	0	0	0	527	492	
6	0	0	0	0	540	484	
7	0	0	0	0	550	480	
8	0	0	0	0	552	479	
9	0	0	0	0	551	476	
10	0	0	0	0	551	479	
11	0	0	0	0	548	489	
12	0	0	0	0	533	493	
13	0	0	0	0	525	504	
14	0	0	0	0	515	504	
15	0	0	0	0	500	512	
0	0	0	0	0	487	531	
1	0	0	0	0	478	538	
2	0	0	0	0	472	539	
3	0	0	0	0	470	545	
4	0	0	0	0	474	550	
5	0	0	0	0	478	538	
6	0	0	0	0	492	521	
7	0	0	0	0	500	506	
8	0	0	0	0	508	492	
9	0	0	0	0	523	487	
10	0	0	0	0	535	483	
11	0	0	0	0	543	480	
12	0	0	0	0	552	483	
13	0	0	0	0	553	476	
14	0	0	0	0	551	470	
15	0	0	0	0	546	477	
0	0	0	0	0	536	491	
1	0	0	0	0	526	503	
2	0	0	0	0	511	515	
3	0	0	0	0	501	534	
4	0	0	0	0	488	548	
5	0	0	0	0	473	552	
6	0	0	0	0	469	546	
7	0	0	0	0	471	540	
8	0	0	0	0	472	533	
9	0	0	0	0	478	527	
10	0	0	0	0	493	517	
11	0	0	0	0	501	505	
12	0	0	0	0	508	496	
13	0	0	0	0	519	487	
14	0	0	0	0	536	479	
15	0	0	0	0	547	471	
0	0	0	0	0	553	474	
1	0	0	0	0	555	473	
2	0	0	0	0	552	472	
3	0	0	0	0	546	486	
4	0	0	0	0	538	498	
5	0	0	0	0	521	507	
6	0	0	0	0	513	516	
7	0	0	0	0	500	532	
8	0	0	0	0	486	542	
9	0	0	0	0	480	544	
10	0	0	0	0	472	543	
11	0	0	0	0	469	540	
12	0	0	0	0	473	534	
13	0	0	0	0	478	521	
14	0	0	0	0	486	508	
15	0	0	0	0	496	503	
0	0	0	0	0	505	498	
1	0	0	0	0	522	487	
2	0	0	0	0	534	480	
3	0	0	0	0	548	474	
4	0	0	0	0	550	476	
5	0	0	0	0	551	477	
6	0	0	0	0	551	477	
7	0	0	0	0	548	487	
8	0	0	0	0	539	497	
9	0	0	0	0	527	508	
10	0	0	0	0	515	517	
11	0	0	0	0	499	528	
12	0	0	0	0	484	538	
13	0	0	0	0	476	543	
14	0	0	0	0	470	541	
15	0	0	0	0	467	542	
0	0	0	0	0	469	536	
1	0	0	0	0	476	527	
2	0	0	0	0	491	513	
3	0	0	0	0	500	505	
4	0	0	0	0	511	498	
5	0	0	0	0	525	485	
6	0	0	0	0	541	475	
7	0	0	0	0	542	472	
8	0	0	0	0	547	474	
9	0	0	0	0	551	478	
10	0	0	0	0	553	480	
11	0	0	0	0	545	487	
12	0	0	0	0	537	498	
13	0	0	0	0	525	508	
14	0	0	0	0	515	517	
15	0	0	0	0	502	529	
0	0	0	0	0	486	540	
1	0	0	0	0	476	541	
2	0	0	0	0	473	541	
3	0	0	0	0	470	542	
4	0	0	0	0	473	538	
5	0	0	0	0	478	527	
6	0	0	0	0	488	516	
7	0	0	0	0	499	507	
8	0	0	0	0	512	497	
9	0	0	0	0	526	487	
10	0	0	0	0	538	477	
11	0	0	0	0	544	474	
12	0	0	0	0	550	474	
13	0	0	0	0	553	472	
14	0	0	0	0	554	478	
15	0	0	0	0	546	489	
0	0	0	0	0	536	501	
1	0	0	0	0	528	508	
2	0	0	0	0	515	518	
3	0	0	0	0	502	527	
4	0	0	0	0	488	534	
5	0	0	0	0	478	537	
6	0	0	0	0	469	537	
7	0	0	0	0	466	537	
8	0	0	0	0	462	533	
9	0	0	0	0	461	525	
10	0	0	0	0	468	519	
11	0	0	0	0	486	511	
12	0	0	0	0	504	498	
13	0	0	0	0	524	488	
14	0	0	0	0	541	476	
15	0	0	0	0	551	474	
0	0	0	0	0	558	473	
1	0	0	0	0	561	478	
2	0	0	0	0	560	483	
3	0	0	0	0	550	487	
4	0	0	0	0	542	501	
5	0	0	0	0	527	509	
6	0	0	0	0	512	517	
7	0	0	0	0	497	528	
8	0	0	0	0	489	538	
9	0	0	0	0	481	540	
10	0	0	0	0	475	538	
11	0	0	0	0	469	539	
12	0	0	0	0	468	534	
13	0	0	0	0	476	529	
14	0	0	0	0	486	515	
15	0	0	0	0	497	504	
0	0	0	0	0	508	496	
1	0	0	0	0	522	487	
2	0	0	0	0	538	479	
3	0	0	0	0	550	476	
4	0	0	0	0	554	478	
5	0	0	0	0	558	476	
6	0	0	0	0	553	476	
7	0	0	0	0	544	482	
8	0	0	0	0	534	498	
9	0	0	0	0	524	508	
10	0	0	0	0	512	516	
11	0	0	0	0	500	531	
12	0	0	0	0	486	535	
13	0	0	0	0	475	540	
14	0	0	0	0	470	539	
15	0	0	0	0	468	542	
0	0	0	0	0	474	547	
1	0	0	0	0	477	532	
2	0	0	0	0	487	515	
3	0	0	0	0	503	508	
4	0	0	0	0	510	497	
5	0	0	0	0	522	484	
6	0	0	0	0	536	475	
7	0	0	0	0	544	474	
8	0	0	0	0	552	473	
9	0	0	0	0	559	475	
10	0	0	0	0	556	476	
11	0	0	0	0	547	484	
12	0	0	0	0	531	499	
13	0	0	0	0	518	509	
14	0	0	0	0	504	515	
15	0	0	0	0	493	521	
0	0	0	0	0	480	530	
1	0	0	0	0	474	540	
2	0	0	0	0	473	548	
3	0	0	0	0	475	546	
4	0	0	0	0	477	540	
5	0	0	0	0	480	527	
6	0	0	0	0	489	514	
7	0	0	0	0	501	507	
8	0	0	0	0	512	496	
9	0	0	0	0	528	487	
10	0	0	0	0	540	477	
11	0	0	0	0	550	476	
12	0	0	0	0	555	474	
13	0	0	0	0	558	478	
14	0	0	0	0	554	479	
15	0	0	0	0	546	487	
0	0	0	0	0	537	497	
1	0	0	0	0	527	508	
2	0	0	0	0	513	518	
3	0	0	0	0	493	527	
4	0	0	0	0	477	536	
5	0	0	0	0	465	539	
6	0	0	0	0	458	539	
7	0	0	0	0	457	541	
8	0	0	0	0	465	540	
9	0	0	0	0	480	528	
10	0	0	0	0	489	518	
11	0	0	0	0	503	508	
12	0	0	0	0	518	499	
13	0	0	0	0	529	487	
14	0	0	0	0	540	479	
15	0	0	0	0	548	472	
0	0	0	0	0	554	468	
1	0	0	0	0	553	467	
2	0	0	0	0	552	473	
3	0	0	0	0	548	488	
4	0	0	0	0	535	501	
5	0	0	0	0	518	512	
6	0	0	0	0	512	523	
7	0	0	0	0	501	533	
8	0	0	0	0	487	540	
9	0	0	0	0	481	542	
10	0	0	0	0	473	534	
11	0	0	0	0	470	531	
12	0	0	0	0	465	531	
13	0	0	0	0	477	532	
14	0	0	0	0	487	524	
15	0	0	0	0	498	511	
0	0	0	0	0	508	498	
1	0	0	0	0	518	485	
2	0	0	0	0	536	479	
3	0	0	0	0	553	472	
4	0	0	0	0	560	470	
5	0	0	0	0	557	473	
6	0	0	0	0	556	478	
7	0	0	0	0	548	489	
8	0	0	0	0	533	498	
9	0	0	0	0	524	508	
10	0	0	0	0	514	518	
11	0	0	0	0	499	529	
12	0	0	0	0	482	538	
13	0	0	0	0	475	543	
14	0	0	0	0	472	540	
15	0	0	0	0	468	539	
0	0	0	0	0	467	538	
1	0	0	0	0	476	530	
2	0	0	0	0	486	510	
3	0	0	0	0	498	500	
4	0	0	0	0	512	500	
5	0	0	0	0	529	488	
6	0	0	0	0	544	480	
7	0	0	0	0	551	473	
8	0	0	0	0	557	470	
9	0	0	0	0	555	471	
10	0	0	0	0	553	476	
11	0	0	0	0	545	485	
12	0	0	0	0	532	496	
13	0	0	0	0	525	512	
14	0	0	0	0	517	523	
15	0	0	0	0	502	530	
0	0	0	0	0	485	536	
1	0	0	0	0	474	542	
2	0	0	0	0	465	543	
3	0	0	0	0	461	537	
4	0	0	0	0	460	535	
5	0	0	0	0	473	528	
6	0	0	0	0	488	516	
7	0	0	0	0	504	510	
8	0	0	0	0	518	499	
9	0	0	0	0	526	486	
10	0	0	0	0	539	477	
11	0	0	0	0	551	472	
12	0	0	0	0	560	471	
13	0	0	0	0	562	476	
14	0	0	0	0	560	474	
15	0	0	0	0	552	484	
0	0	0	0	0	537	498	
1	0	0	0	0	526	509	
2	0	0	0	0	512	518	
3	0	0	0	0	485	527	
4	0	0	0	0	474	535	
5	0	0	0	0	462	540	
6	0	0	0	0	466	546	
7	0	0	0	0	468	545	
8	0	0	0	0	473	537	
9	0	0	0	0	479	527	
10	0	0	0	0	480	517	
11	0	0	0	0	499	507	
12	0	0	0	0	512	498	
13	0	0	0	0	529	486	
14	0	0	0	0	542	479	
15	0	0	0	0	553	474	
0	0	0	0	0	557	469	
1	0	0	0	0	553	471	
2	0	0	0	0	554	475	
3	0	0	0	0	542	481	
4	0	0	0	0	529	495	
5	0	0	0	0	516	508	
6	0	0	0	0	498	519	
7	0	0	0	0	492	533	
8	0	0	0	0	486	542	
9	0	0	0	0	481	542	
10	0	0	0	0	475	541	
11	0	0	0	0	474	541	
12	0	0	0	0	474	543	
13	0	0	0	0	481	533	
14	0	0	0	0	492	513	
15	0	0	0	0	509	504	
0	0	0	0	0	519	493	
1	0	0	0	0	530	480	
2	0	0	0	0	546	479	
3	0	0	0	0	555	481	
4	0	0	0	0	548	480	
5	0	0	0	0	547	482	
6	0	0	0	0	545	478	
7	0	0	0	0	536	476	
8	0	0	0	0	519	497	
9	0	0	0	0	515	506	
10	0	0	0	0	506	507	
11	0	0	0	0	497	520	
12	0	0	0	0	484	547	
13	0	0	0	0	480	568	
14	0	0	0	0	479	568	
15	0	0	0	0	476	553	
0	0	0	0	0	469	531	
1	0	0	0	0	475	487	
2	0	0	0	0	484	473	
3	0	0	0	0	499	499	
4	0	0	0	0	512	497	
5	0	0	0	0	531	491	
6	0	0	0	0	547	487	
7	0	0	0	0	552	476	
8	0	0	0	0	552	475	
9	0	0	0	0	557	481	
10	0	0	0	0	556	484	
11	0	0	0	0	549	487	
12	0	0	0	0	535	503	
13	0	0	0	0	522	511	
14	0	0	0	0	508	518	
15	0	0	0	0	496	532	
0	0	0	0	0	484	542	
1	0	0	0	0	477	539	
2	0	0	0	0	468	529	
3	0	0	0	0	465	523	
4	0	0	0	0	469	532	
5	0	0	0	0	480	532	
6	0	0	0	0	491	516	
7	0	0	0	0	499	503	
8	0	0	0	0	506	499	
9	0	0	0	0	522	490	
10	0	0	0	0	539	485	
11	0	0	0	0	548	477	
12	0	0	0	0	554	478	
13	0	0	0	0	559	480	
14	0	0	0	0	554	480	
15	0	0	0	0	546	483	
0	0	0	0	0	536	491	
1	0	0	0	0	525	499	
2	0	0	0	0	513	516	
3	0	0	0	0	503	539	
4	0	0	0	0	484	540	
5	0	0	0	0	476	543	
6	0	0	0	0	468	538	
7	0	0	0	0	467	537	
8	0	0	0	0	471	538	
9	0	0	0	0	479	530	
10	0	0	0	0	487	518	
11	0	0	0	0	501	509	
12	0	0	0	0	514	500	
13	0	0	0	0	528	487	
14	0	0	0	0	541	478	
15	0	0	0	0	546	472	
0	0	0	0	0	547	471	
1	0	0	0	0	555	473	
2	0	0	0	0	551	475	
3	0	0	0	0	550	483	
4	0	0	0	0	540	495	
5	0	0	0	0	526	506	
6	0	0	0	0	508	517	
7	0	0	0	0	488	531	
8	0	0	0	0	469	538	
9	0	0	0	0	460	542	
10	0	0	0	0	456	541	
11	0	0	0	0	461	544	
12	0	0	0	0	460	539	
13	0	0	0	0	475	528	
14	0	0	0	0	490	513	
15	0	0	0	0	502	511	
0	0	0	0	0	512	499	
1	0	0	0	0	527	484	
2	0	0	0	0	539	475	
3	0	0	0	0	548	465	
4	0	0	0	0	555	468	
5	0	0	0	0	559	471	
6	0	0	0	0	559	476	
7	0	0	0	0	552	491	
8	0	0	0	0	540	502	
9	0	0	0	0	528	511	
10	0	0	0	0	517	522	
11	0	0	0	0	507	528	
12	0	0	0	0	492	544	
13	0	0	0	0	483	559	
14	0	0	0	0	476	556	
15	0	0	0	0	468	545	
0	0	0	0	0	464	533	
1	0	0	0	0	465	510	
2	0	0	0	0	477	505	
3	0	0	0	0	504	497	
4	0	0	0	0	517	495	
5	0	0	0	0	528	482	
6	0	0	0	0	542	459	
7	0	0	0	0	551	460	
8	0	0	0	0	556	472	
9	0	0	0	0	553	478	
10	0	0	0	0	555	485	
11	0	0	0	0	550	495	
12	0	0	0	0	536	496	
13	0	0	0	0	525	504	
14	0	0	0	0	512	516	
15	0	0	0	0	498	532	
0	0	0	0	0	484	541	
1	0	0	0	0	472	545	
2	0	0	0	0	467	545	
3	0	0	0	0	467	545	
4	0	0	0	0	467	540	
5	0	0	0	0	472	530	
6	0	0	0	0	485	519	
7	0	0	0	0	499	507	
8	0	0	0	0	511	497	
9	0	0	0	0	528	484	
10	0	0	0	0	540	476	
11	0	0	0	0	547	472	
12	0	0	0	0	553	469	
13	0	0	0	0	554	478	
14	0	0	0	0	549	483	
15	0	0	0	0	546	488	
0	0	0	0	0	538	497	
1	0	0	0	0	528	497	
2	0	0	0	0	517	510	
3	0	0	0	0	503	529	
4	0	0	0	0	491	539	
5	0	0	0	0	483	545	
6	0	0	0	0	477	544	
7	0	0	0	0	476	546	
8	0	0	0	0	474	542	
9	0	0	0	0	482	530	
10	0	0	0	0	490	514	
11	0	0	0	0	503	508	
12	0	0	0	0	508	497	
13	0	0	0	0	515	484	
14	0	0	0	0	530	478	
15	0	0	0	0	543	474	
0	0	0	0	0	545	475	
1	0	0	0	0	536	471	
2	0	0	0	0	530	473	
3	0	0	0	0	531	481	
4	0	0	0	0	523	494	
5	0	0	0	0	514	505	
6	0	0	0	0	502	517	
7	0	0	0	0	486	529	
8	0	0	0	0	479	544	
9	0	0	0	0	472	545	
10	0	0	0	0	472	543	
11	0	0	0	0	476	541	
12	0	0	0	0	472	538	
13	0	0	0	0	484	530	
14	0	0	0	0	500	517	
15	0	0	0	0	510	499	
0	0	0	0	0	521	488	
1	0	0	0	0	534	488	
2	0	0	0	0	545	478	
3	0	0	0	0	554	471	
4	0	0	0	0	556	477	
5	0	0	0	0	559	482	
6	0	0	0	0	557	482	
7	0	0	0	0	550	487	
8	0	0	0	0	536	492	
9	0	0	0	0	526	505	
10	0	0	0	0	513	528	
11	0	0	0	0	504	546	
12	0	0	0	0	487	553	
13	0	0	0	0	476	547	
14	0	0	0	0	468	502	
15	0	0	0	0	463	503	
0	0	0	0	0	471	551	
1	0	0	0	0	480	547	
2	0	0	0	0	487	532	
3	0	0	0	0	489	509	
4	0	0	0	0	501	481	
5	0	0	0	0	519	463	
6	0	0	0	0	539	479	
7	0	0	0	0	553	493	
8	0	0	0	0	558	471	
9	0	0	0	0	552	445	
10	0	0	0	0	550	461	
11	0	0	0	0	544	488	
12	0	0	0	0	542	499	
13	0	0	0	0	532	508	
14	0	0	0	0	519	528	
15	0	0	0	0	505	536	
0	0	0	0	0	491	544	
1	0	0	0	0	475	543	
2	0	0	0	0	472	544	
3	0	0	0	0	466	543	
4	0	0	0	0	465	542	
5	0	0	0	0	473	529	
6	0	0	0	0	486	521	
7	0	0	0	0	497	511	
8	0	0	0	0	510	500	
9	0	0	0	0	525	494	
10	0	0	0	0	531	479	
11	0	0	0	0	540	463	
12	0	0	0	0	546	457	
13	0	0	0	0	549	471	
14	0	0	0	0	554	484	
15	0	0	0	0	553	494	
0	0	0	0	0	537	499	
1	0	0	0	0	528	504	
2	0	0	0	0	512	504	
3	0	0	0	0	497	525	
4	0	0	0	0	485	543	
5	0	0	0	0	476	547	
6	0	0	0	0	470	543	
7	0	0	0	0	470	542	
8	0	0	0	0	470	538	
9	0	0	0	0	478	529	
10	0	0	0	0	489	518	
11	0	0	0	0	501	506	
12	0	0	0	0	512	489	
13	0	0	0	0	523	479	
14	0	0	0	0	535	475	
15	0	0	0	0	545	472	
0	0	0	0	0	551	475	
1	0	0	0	0	553	476	
2	0	0	0	0	554	482	
3	0	0	0	0	547	489	
4	0	0	0	0	536	497	
5	0	0	0	0	523	505	
6	0	0	0	0	514	517	
7	0	0	0	0	500	533	
8	0	0	0	0	484	540	
9	0	0	0	0	472	538	
10	0	0	0	0	471	542	
11	0	0	0	0	471	539	
12	0	0	0	0	473	532	
13	0	0	0	0	476	523	
14	0	0	0	0	489	514	
15	0	0	0	0	502	507	
0	0	0	0	0	512	500	
1	0	0	0	0	528	492	
2	0	0	0	0	541	480	
3	0	0	0	0	551	476	
4	0	0	0	0	555	472	
5	0	0	0	0	557	478	
6	0	0	0	0	556	483	
7	0	0	0	0	551	492	
8	0	0	0	0	536	500	
9	0	0	0	0	522	500	
10	0	0	0	0	512	511	
11	0	0	0	0	493	517	
12	0	0	0	0	469	530	
13	0	0	0	0	456	540	
14	0	0	0	0	455	551	
15	0	0	0	0	462	555	
0	0	0	0	0	464	552	
1	0	0	0	0	472	531	
2	0	0	0	0	486	512	
3	0	0	0	0	506	502	
4	0	0	0	0	519	492	
5	0	0	0	0	527	468	
6	0	0	0	0	543	475	
7	0	0	0	0	552	470	
8	0	0	0	0	557	465	
9	0	0	0	0	564	481	
10	0	0	0	0	563	489	
11	0	0	0	0	556	502	
12	0	0	0	0	543	507	
13	0	0	0	0	524	489	
14	0	0	0	0	508	499	
15	0	0	0	0	492	519	
0	0	0	0	0	478	540	
1	0	0	0	0	470	538	
2	0	0	0	0	470	532	
3	0	0	0	0	472	542	
4	0	0	0	0	473	553	
5	0	0	0	0	479	546	
6	0	0	0	0	491	524	
7	0	0	0	0	499	504	
8	0	0	0	0	505	470	
9	0	0	0	0	521	487	
10	0	0	0	0	543	500	
11	0	0	0	0	551	481	
12	0	0	0	0	553	451	
13	0	0	0	0	554	468	
14	0	0	0	0	560	499	
15	0	0	0	0	551	487	
0	0	0	0	0	530	489	
1	0	0	0	0	523	512	
2	0	0	0	0	512	531	
3	0	0	0	0	497	527	
4	0	0	0	0	484	548	
5	0	0	0	0	478	562	
6	0	0	0	0	471	552	
7	0	0	0	0	469	536	
8	0	0	0	0	466	516	
9	0	0	0	0	473	502	
10	0	0	0	0	489	528	
11	0	0	0	0	500	517	
12	0	0	0	0	506	483	
13	0	0	0	0	524	464	
14	0	0	0	0	540	464	
15	0	0	0	0	546	471	
0	0	0	0	0	549	485	
1	0	0	0	0	556	493	
2	0	0	0	0	551	452	
3	0	0	0	0	552	498	
4	0	0	0	0	537	529	
5	0	0	0	0	528	542	
6	0	0	0	0	513	521	
7	0	0	0	0	497	510	
8	0	0	0	0	480	487	
9	0	0	0	0	474	529	
10	0	0	0	0	471	546	
11	0	0	0	0	474	551	
12	0	0	0	0	465	530	
13	0	0	0	0	474	499	
14	0	0	0	0	494	527	
15	0	0	0	0	504	525	
0	0	0	0	0	516	511	
1	0	0	0	0	526	499	
2	0	0	0	0	537	483	
3	0	0	0	0	540	467	
4	0	0	0	0	549	483	
5	0	0	0	0	551	483	
6	0	0	0	0	551	489	
7	0	0	0	0	547	505	
8	0	0	0	0	535	508	
9	0	0	0	0	521	487	
10	0	0	0	0	508	478	
11	0	0	0	0	497	505	
12	0	0	0	0	484	519	
13	0	0	0	0	483	548	
14	0	0	0	0	477	565	
15	0	0	0	0	480	575	
0	0	0	0	0	473	563	
1	0	0	0	0	476	539	
2	0	0	0	0	479	507	
3	0	0	0	0	490	522	
4	0	0	0	0	507	487	
5	0	0	0	0	519	448	
6	0	0	0	0	531	413	
7	0	0	0	0	545	437	
8	0	0	0	0	562	477	
9	0	0	0	0	560	483	
10	0	0	0	0	555	494	
11	0	0	0	0	549	499	
12	0	0	0	0	540	512	
13	0	0	0	0	533	562	
14	0	0	0	0	517	564	
15	0	0	0	0	496	560	
0	0	0	0	0	477	527	
1	0	0	0	0	457	484	
2	0	0	0	0	456	508	
3	0	0	0	0	470	525	
4	0	0	0	0	486	506	
5	0	0	0	0	493	500	
6	0	0	0	0	496	528	
7	0	0	0	0	506	515	
8	0	0	0	0	503	480	
9	0	0	0	0	516	486	
10	0	0	0	0	530	489	
11	0	0	0	0	545	474	
12	0	0	0	0	554	470	
13	0	0	0	0	558	498	
14	0	0	0	0	550	502	
15	0	0	0	0	545	496	
0	0	0	0	0	535	510	
1	0	0	0	0	528	519	
2	0	0	0	0	515	521	
3	0	0	0	0	497	516	
4	0	0	0	0	484	535	
5	0	0	0	0	477	560	
6	0	0	0	0	469	542	
7	0	0	0	0	456	519	
8	0	0	0	0	454	497	
9	0	0	0	0	479	505	
10	0	0	0	0	505	540	
11	0	0	0	0	518	540	
12	0	0	0	0	524	517	
13	0	0	0	0	519	447	
14	0	0	0	0	536	447	
15	0	0	0	0	563	483	
0	0	0	0	0	564	518	
1	0	0	0	0	560	582	
2	0	0	0	0	536	503	
3	0	0	0	0	510	412	
4	0	0	0	0	514	389	
5	0	0	0	0	524	424	
6	0	0	0	0	523	516	
7	0	0	0	0	499	517	
8	0	0	0	0	485	545	
9	0	0	0	0	484	555	
10	0	0	0	0	486	539	
11	0	0	0	0	477	548	
12	0	0	0	0	467	558	
13	0	0	0	0	473	543	
14	0	0	0	0	489	521	
15	0	0	0	0	498	520	
0	0	0	0	0	511	523	
1	0	0	0	0	524	513	
2	0	0	0	0	536	502	
3	0	0	0	0	544	483	
4	0	0	0	0	556	462	
5	0	0	0	0	560	486	
6	0	0	0	0	559	517	
7	0	0	0	0	550	503	
8	0	0	0	0	530	496	
9	0	0	0	0	513	471	
10	0	0	0	0	494	473	
11	0	0	0	0	492	514	
12	0	0	0	0	492	503	
13	0	0	0	0	477	524	
14	0	0	0	0	480	551	
15	0	0	0	0	472	555	
0	0	0	0	0	468	549	
1	0	0	0	0	474	511	
2	0	0	0	0	488	516	
3	0	0	0	0	508	561	
4	0	0	0	0	505	571	
5	0	0	0	0	515	542	
6	0	0	0	0	534	419	
7	0	0	0	0	553	415	
8	0	0	0	0	546	402	
9	0	0	0	0	563	485	
10	0	0	0	0	556	482	
11	0	0	0	0	530	439	
12	0	0	0	0	531	463	
13	0	0	0	0	530	465	
14	0	0	0	0	531	502	
15	0	0	0	0	512	550	
0	0	0	0	0	491	551	
1	0	0	0	0	480	563	
2	0	0	0	0	474	577	
3	0	0	0	0	466	583	
4	0	0	0	0	461	591	
5	0	0	0	0	470	544	
6	0	0	0	0	473	453	
7	0	0	0	0	497	485	
8	0	0	0	0	523	509	
9	0	0	0	0	531	506	
10	0	0	0	0	543	486	
11	0	0	0	0	531	427	
12	0	0	0	0	551	465	
13	0	0	0	0	558	538	
14	0	0	0	0	560	589	
15	0	0	0	0	557	555	
0	0	0	0	0	519	444	
1	0	0	0	0	507	430	
2	0	0	0	0	506	447	
3	0	0	0	0	506	468	
4	0	0	0	0	492	519	
5	0	0	0	0	485	560	
6	0	0	0	0	475	528	
7	0	0	0	0	472	540	
8	0	0	0	0	475	533	
9	0	0	0	0	478	558	
10	0	0	0	0	487	526	
11	0	0	0	0	503	515	
12	0	0	0	0	510	536	
13	0	0	0	0	518	526	
14	0	0	0	0	531	469	
15	0	0	0	0	547	455	
0	0	0	0	0	552	437	
1	0	0	0	0	551	453	
2	0	0	0	0	551	502	
3	0	0	0	0	544	497	
4	0	0	0	0	540	530	
5	0	0	0	0	526	521	
6	0	0	0	0	509	467	
7	0	0	0	0	496	454	
8	0	0	0	0	491	516	
9	0	0	0	0	483	559	
10	0	0	0	0	476	568	
11	0	0	0	0	472	568	
12	0	0	0	0	467	539	
13	0	0	0	0	469	494	
14	0	0	0	0	483	516	
15	0	0	0	0	504	528	
0	0	0	0	0	512	524	
1	0	0	0	0	526	514	
2	0	0	0	0	544	501	
3	0	0	0	0	547	490	
4	0	0	0	0	548	472	
5	0	0	0	0	550	487	
6	0	0	0	0	552	515	
7	0	0	0	0	530	496	
8	0	0	0	0	507	409	
9	0	0	0	0	532	423	
10	0	0	0	0	543	506	
11	0	0	0	0	512	533	
12	0	0	0	0	487	538	
13	0	0	0	0	472	556	
14	0	0	0	0	468	569	
15	0	0	0	0	469	553	
0	0	0	0	0	463	526	
1	0	0	0	0	477	517	
2	0	0	0	0	487	518	
3	0	0	0	0	503	527	
4	0	0	0	0	513	457	
5	0	0	0	0	544	511	
6	0	0	0	0	536	490	
7	0	0	0	0	537	475	
8	0	0	0	0	548	462	
9	0	0	0	0	553	467	
10	0	0	0	0	552	486	
11	0	0	0	0	541	489	
12	0	0	0	0	529	510	
13	0	0	0	0	519	526	
14	0	0	0	0	513	531	
15	0	0	0	0	503	546	
0	0	0	0	0	480	554	
1	0	0	0	0	470	551	
2	0	0	0	0	459	491	
3	0	0	0	0	480	493	
4	0	0	0	0	488	524	
5	0	0	0	0	487	541	
6	0	0	0	0	493	531	
7	0	0	0	0	501	525	
8	0	0	0	0	506	490	
9	0	0	0	0	515	448	
10	0	0	0	0	538	455	
11	0	0	0	0	553	449	
12	0	0	0	0	553	474	
13	0	0	0	0	558	500	
14	0	0	0	0	550	487	
15	0	0	0	0	539	512	
0	0	0	0	0	530	545	
1	0	0	0	0	521	552	
2	0	0	0	0	505	529	
3	0	0	0	0	498	487	
4	0	0	0	0	485	499	
5	0	0	0	0	490	534	
6	0	0	0	0	473	507	
7	0	0	0	0	470	533	
8	0	0	0	0	468	537	
9	0	0	0	0	479	535	
10	0	0	0	0	484	509	
11	0	0	0	0	507	529	
12	0	0	0	0	516	529	
13	0	0	0	0	520	493	
14	0	0	0	0	537	475	
15	0	0	0	0	544	474	
0	0	0	0	0	550	461	
1	0	0	0	0	553	471	
2	0	0	0	0	550	485	
3	0	0	0	0	540	472	
4	0	0	0	0	530	474	
5	0	0	0	0	526	507	
6	0	0	0	0	514	523	
7	0	0	0	0	499	540	
8	0	0	0	0	482	552	
9	0	0	0	0	475	550	
10	0	0	0	0	477	556	
11	0	0	0	0	468	531	
12	0	0	0	0	462	506	
13	0	0	0	0	477	516	
14	0	0	0	0	496	523	
15	0	0	0	0	513	525	
0	0	0	0	0	517	500	
1	0	0	0	0	527	477	
2	0	0	0	0	536	484	
3	0	0	0	0	544	476	
4	0	0	0	0	549	476	
5	0	0	0	0	553	483	
6	0	0	0	0	553	484	
7	0	0	0	0	544	485	
8	0	0	0	0	535	501	
9	0	0	0	0	526	509	
10	0	0	0	0	511	503	
11	0	0	0	0	498	520	
12	0	0	0	0	485	534	
13	0	0	0	0	476	543	
14	0	0	0	0	471	542	
15	0	0	0	0	473	540	
0	0	0	0	0	470	535	
1	0	0	0	0	476	526	
2	0	0	0	0	487	513	
3	0	0	0	0	500	509	
4	0	0	0	0	514	498	
5	0	0	0	0	526	483	
6	0	0	0	0	537	485	
7	0	0	0	0	547	479	
8	0	0	0	0	551	476	
9	0	0	0	0	551	473	
10	0	0	0	0	554	477	
11	0	0	0	0	551	486	
12	0	0	0	0	537	496	
13	0	0	0	0	526	507	
14	0	0	0	0	515	515	
15	0	0	0	0	502	528	
0	0	0	0	0	488	536	
1	0	0	0	0	480	542	
2	0	0	0	0	476	542	
3	0	0	0	0	474	537	
4	0	0	0	0	472	533	
5	0	0	0	0	479	524	
6	0	0	0	0	487	515	
7	0	0	0	0	501	508	
8	0	0	0	0	511	497	
9	0	0	0	0	525	489	
10	0	0	0	0	534	478	
11	0	0	0	0	542	476	
12	0	0	0	0	543	473	
13	0	0	0	0	548	477	
14	0	0	0	0	545	478	
15	0	0	0	0	536	484	
0	0	0	0	0	526	497	
1	0	0	0	0	519	512	
2	0	0	0	0	509	519	
3	0	0	0	0	494	530	
4	0	0	0	0	479	536	
5	0	0	0	0	477	541	
6	0	0	0	0	479	541	
7	0	0	0	0	483	541	
8	0	0	0	0	476	539	
9	0	0	0	0	476	524	
10	0	0	0	0	487	515	
11	0	0	0	0	500	507	
12	0	0	0	0	514	500	
13	0	0	0	0	529	490	
14	0	0	0	0	542	478	
15	0	0	0	0	548	471	
0	0	0	0	0	556	474	
1	0	0	0	0	560	478	
2	0	0	0	0	558	479	
3	0	0	0	0	551	483	
4	0	0	0	0	534	495	
5	0	0	0	0	519	502	
6	0	0	0	0	504	514	
7	0	0	0	0	490	524	
8	0	0	0	0	478	535	
9	0	0	0	0	470	547	
10	0	0	0	0	467	544	
11	0	0	0	0	465	542	
12	0	0	0	0	463	536	
13	0	0	0	0	474	526	
14	0	0	0	0	486	513	
15	0	0	0	0	495	505	
0	0	0	0	0	503	498	
1	0	0	0	0	519	491	
2	0	0	0	0	536	481	
3	0	0	0	0	547	480	
4	0	0	0	0	561	478	
5	0	0	0	0	568	474	
6	0	0	0	0	569	477	
7	0	0	0	0	558	484	
8	0	0	0	0	544	491	
9	0	0	0	0	540	503	
10	0	0	0	0	532	518	
11	0	0	0	0	512	530	
12	0	0	0	0	491	535	
13	0	0	0	0	480	540	
14	0	0	0	0	477	543	
15	0	0	0	0	471	541	
0	0	0	0	0	469	539	
1	0	0	0	0	481	527	
2	0	0	0	0	486	514	
3	0	0	0	0	487	504	
4	0	0	0	0	502	494	
5	0	0	0	0	510	481	
6	0	0	0	0	523	477	
7	0	0	0	0	540	479	
8	0	0	0	0	550	479	
9	0	0	0	0	549	476	
10	0	0	0	0	551	476	
11	0	0	0	0	542	482	
12	0	0	0	0	535	492	
13	0	0	0	0	518	507	
14	0	0	0	0	504	520	
15	0	0	0	0	492	535	
0	0	0	0	0	480	542	
1	0	0	0	0	467	542	
2	0	0	0	0	456	537	
3	0	0	0	0	458	540	
4	0	0	0	0	456	533	
5	0	0	0	0	466	523	
6	0	0	0	0	481	510	
7	0	0	0	0	509	508	
8	0	0	0	0	534	511	
9	0	0	0	0	549	499	
10	0	0	0	0	559	481	
11	0	0	0	0	569	480	
12	0	0	0	0	575	479	
13	0	0	0	0	566	475	
14	0	0	0	0	561	473	
15	0	0	0	0	544	480	
0	0	0	0	0	528	492	
1	0	0	0	0	517	506	
2	0	0	0	0	502	518	
3	0	0	0	0	492	529	
4	0	0	0	0	486	538	
5	0	0	0	0	477	542	
6	0	0	0	0	464	539	
7	0	0	0	0	449	536	
8	0	0	0	0	451	531	
9	0	0	0	0	464	526	
10	0	0	0	0	478	510	
11	0	0	0	0	491	503	
12	0	0	0	0	512	496	
13	0	0	0	0	535	487	
14	0	0	0	0	549	477	
15	0	0	0	0	560	479	
0	0	0	0	0	564	482	
1	0	0	0	0	560	480	
2	0	0	0	0	551	479	
3	0	0	0	0	540	482	
4	0	0	0	0	530	491	
5	0	0	0	0	525	505	
6	0	0	0	0	518	518	
7	0	0	0	0	505	530	
8	0	0	0	0	496	542	
9	0	0	0	0	488	547	
10	0	0	0	0	481	545	
11	0	0	0	0	474	541	
12	0	0	0	0	457	533	
13	0	0	0	0	463	526	
14	0	0	0	0	474	515	
15	0	0	0	0	485	504	
0	0	0	0	0	501	501	
1	0	0	0	0	515	489	
2	0	0	0	0	532	475	
3	0	0	0	0	550	469	
4	0	0	0	0	561	471	
5	0	0	0	0	569	473	
6	0	0	0	0	572	478	
7	0	0	0	0	564	485	
8	0	0	0	0	549	499	
9	0	0	0	0	534	508	
10	0	0	0	0	522	517	
11	0	0	0	0	500	526	
12	0	0	0	0	481	537	
13	0	0	0	0	469	541	
14	0	0	0	0	463	542	
15	0	0	0	0	462	542	
0	0	0	0	0	464	537	
1	0	0	0	0	471	528	
2	0	0	0	0	484	515	
3	0	0	0	0	496	505	
4	0	0	0	0	505	498	
5	0	0	0	0	518	483	
6	0	0	0	0	527	475	
7	0	0	0	0	539	473	
8	0	0	0	0	547	473	
9	0	0	0	0	551	474	
10	0	0	0	0	561	480	
11	0	0	0	0	562	489	
12	0	0	0	0	542	498	
13	0	0	0	0	527	508	
14	0	0	0	0	518	524	
15	0	0	0	0	508	534	
0	0	0	0	0	488	539	
1	0	0	0	0	476	539	
2	0	0	0	0	477	539	
3	0	0	0	0	477	542	
4	0	0	0	0	476	538	
5	0	0	0	0	481	529	
6	0	0	0	0	483	513	
7	0	0	0	0	492	499	
8	0	0	0	0	501	490	
9	0	0	0	0	522	484	
10	0	0	0	0	544	480	
11	0	0	0	0	550	474	
12	0	0	0	0	551	473	
13	0	0	0	0	547	476	
14	0	0	0	0	549	479	
15	0	0	0	0	545	487	
0	0	0	0	0	536	500	
1	0	0	0	0	531	509	
2	0	0	0	0	519	517	
3	0	0	0	0	504	527	
4	0	0	0	0	485	535	
5	0	0	0	0	477	542	
6	0	0	0	0	472	540	
7	0	0	0	0	468	538	
8	0	0	0	0	467	536	
9	0	0	0	0	471	529	
10	0	0	0	0	478	519	
11	0	0	0	0	483	508	
12	0	0	0	0	482	496	
13	0	0	0	0	508	485	
14	0	0	0	0	539	479	
15	0	0	0	0	552	473	
0	0	0	0	0	559	470	
1	0	0	0	0	562	476	
2	0	0	0	0	566	478	
3	0	0	0	0	563	487	
4	0	0	0	0	554	498	
5	0	0	0	0	543	507	
6	0	0	0	0	527	516	
7	0	0	0	0	500	527	
8	0	0	0	0	477	537	
9	0	0	0	0	465	541	
10	0	0	0	0	461	542	
11	0	0	0	0	461	545	
12	0	0	0	0	459	542	
13	0	0	0	0	461	528	
14	0	0	0	0	469	510	
15	0	0	0	0	485	504	
0	0	0	0	0	502	495	
1	0	0	0	0	527	490	
2	0	0	0	0	546	483	
3	0	0	0	0	548	475	
4	0	0	0	0	549	474	
5	0	0	0	0	550	476	
6	0	0	0	0	551	471	
7	0	0	0	0	546	479	
8	0	0	0	0	538	496	
9	0	0	0	0	530	509	
10	0	0	0	0	515	519	
11	0	0	0	0	508	531	
12	0	0	0	0	495	542	
13	0	0	0	0	491	545	
14	0	0	0	0	486	547	
15	0	0	0	0	479	543	
0	0	0	0	0	476	534	
1	0	0	0	0	481	526	
2	0	0	0	0	493	513	
3	0	0	0	0	499	507	
4	0	0	0	0	506	496	
5	0	0	0	0	518	484	
6	0	0	0	0	531	476	
7	0	0	0	0	543	471	
8	0	0	0	0	542	472	
9	0	0	0	0	543	474	
10	0	0	0	0	550	478	
11	0	0	0	0	547	489	
12	0	0	0	0	535	498	
13	0	0	0	0	527	506	
14	0	0	0	0	517	516	
15	0	0	0	0	508	529	
0	0	0	0	0	492	537	
1	0	0	0	0	483	541	
2	0	0	0	0	481	540	
3	0	0	0	0	482	539	
4	0	0	0	0	481	538	
5	0	0	0	0	485	529	
6	0	0	0	0	483	515	
7	0	0	0	0	478	508	
8	0	0	0	0	483	497	
9	0	0	0	0	512	487	
10	0	0	0	0	534	479	
11	0	0	0	0	546	476	
12	0	0	0	0	552	473	
13	0	0	0	0	553	474	
14	0	0	0	0	550	475	
15	0	0	0	0	540	483	
0	0	0	0	0	531	496	
1	0	0	0	0	522	506	
2	0	0	0	0	512	516	
3	0	0	0	0	503	531	
4	0	0	0	0	494	542	
5	0	0	0	0	489	546	
6	0	0	0	0	485	542	
7	0	0	0	0	477	539	
8	0	0	0	0	474	534	
9	0	0	0	0	478	526	
10	0	0	0	0	495	518	
11	0	0	0	0	503	506	
12	0	0	0	0	511	501	
13	0	0	0	0	515	489	
14	0	0	0	0	527	480	
15	0	0	0	0	532	476	
0	0	0	0	0	539	473	
1	0	0	0	0	545	478	
2	0	0	0	0	547	479	
3	0	0	0	0	551	482	
4	0	0	0	0	545	493	
5	0	0	0	0	531	505	
6	0	0	0	0	514	520	
7	0	0	0	0	489	532	
8	0	0	0	0	476	539	
9	0	0	0	0	473	543	
10	0	0	0	0	466	540	
11	0	0	0	0	468	540	
12	0	0	0	0	468	537	
13	0	0	0	0	475	529	
14	0	0	0	0	483	514	
15	0	0	0	0	499	505	
0	0	0	0	0	511	495	
1	0	0	0	0	529	488	
2	0	0	0	0	542	478	
3	0	0	0	0	554	472	
4	0	0	0	0	561	472	
5	0	0	0	0	556	475	
6	0	0	0	0	551	476	
7	0	0	0	0	549	487	
8	0	0	0	0	540	501	
9	0	0	0	0	532	510	
10	0	0	0	0	521	518	
11	0	0	0	0	503	528	
12	0	0	0	0	483	538	
13	0	0	0	0	469	537	
14	0	0	0	0	469	541	
15	0	0	0	0	467	545	
0	0	0	0	0	460	538	
1	0	0	0	0	467	527	
2	0	0	0	0	487	511	
3	0	0	0	0	503	504	
4	0	0	0	0	511	497	
5	0	0	0	0	527	490	
6	0	0	0	0	543	482	
7	0	0	0	0	549	475	
8	0	0	0	0	559	468	
9	0	0	0	0	567	471	
10	0	0	0	0	566	473	
11	0	0	0	0	561	478	
12	0	0	0	0	552	492	
13	0	0	0	0	537	509	
14	0	0	0	0	507	517	
15	0	0	0	0	480	527	
0	0	0	0	0	472	539	
1	0	0	0	0	472	545	
2	0	0	0	0	476	551	
3	0	0	0	0	472	547	
4	0	0	0	0	470	542	
5	0	0	0	0	475	527	
6	0	0	0	0	477	511	
7	0	0	0	0	480	496	
8	0	0	0	0	492	494	
9	0	0	0	0	504	487	
10	0	0	0	0	523	479	
11	0	0	0	0	540	474	
12	0	0	0	0	552	480	
13	0	0	0	0	558	483	
14	0	0	0	0	561	481	
15	0	0	0	0	559	487	
0	0	0	0	0	551	499	
1	0	0	0	0	538	506	
2	0	0	0	0	520	513	
3	0	0	0	0	504	523	
4	0	0	0	0	481	536	
5	0	0	0	0	468	540	
6	0	0	0	0	472	544	
7	0	0	0	0	473	540	
8	0	0	0	0	466	540	
9	0	0	0	0	469	530	
10	0	0	0	0	476	517	
11	0	0	0	0	487	506	
12	0	0	0	0	499	499	
13	0	0	0	0	518	490	
14	0	0	0	0	538	476	
15	0	0	0	0	551	472	
0	0	0	0	0	552	475	
1	0	0	0	0	553	474	
2	0	0	0	0	561	475	
3	0	0	0	0	555	485	
4	0	0	0	0	542	499	
5	0	0	0	0	537	510	
6	0	0	0	0	524	521	
7	0	0	0	0	507	527	
8	0	0	0	0	488	533	
9	0	0	0	0	483	536	
10	0	0	0	0	474	537	
11	0	0	0	0	465	536	
12	0	0	0	0	461	531	
13	0	0	0	0	464	524	
14	0	0	0	0	476	515	
15	0	0	0	0	494	509	
0	0	0	0	0	511	501	
1	0	0	0	0	527	491	
2	0	0	0	0	533	479	
3	0	0	0	0	543	476	
4	0	0	0	0	554	477	
5	0	0	0	0	561	475	
6	0	0	0	0	560	474	
7	0	0	0	0	551	487	
8	0	0	0	0	535	501	
9	0	0	0	0	519	507	
10	0	0	0	0	503	513	
11	0	0	0	0	493	530	
12	0	0	0	0	485	540	
13	0	0	0	0	483	541	
14	0	0	0	0	485	543	
15	0	0	0	0	484	542	
0	0	0	0	0	473	535	
1	0	0	0	0	474	524	
2	0	0	0	0	483	511	
3	0	0	0	0	488	506	
4	0	0	0	0	502	495	
5	0	0	0	0	519	485	
6	0	0	0	0	535	478	
7	0	0	0	0	547	477	
8	0	0	0	0	550	475	
9	0	0	0	0	562	481	
10	0	0	0	0	566	481	
11	0	0	0	0	556	489	
12	0	0	0	0	540	495	
13	0	0	0	0	524	505	
14	0	0	0	0	515	516	
15	0	0	0	0	498	529	
0	0	0	0	0	478	535	
1	0	0	0	0	464	537	
2	0	0	0	0	465	541	
3	0	0	0	0	467	545	
4	0	0	0	0	477	542	
5	0	0	0	0	479	527	
6	0	0	0	0	491	509	
7	0	0	0	0	496	504	
8	0	0	0	0	507	497	
9	0	0	0	0	520	489	
10	0	0	0	0	532	479	
11	0	0	0	0	537	474	
12	0	0	0	0	543	474	
13	0	0	0	0	552	475	
14	0	0	0	0	556	480	
15	0	0	0	0	551	482	
0	0	0	0	0	545	492	
1	0	0	0	0	533	510	
2	0	0	0	0	521	521	
3	0	0	0	0	504	534	
4	0	0	0	0	485	535	
5	0	0	0	0	479	541	
6	0	0	0	0	480	538	
7	0	0	0	0	489	540	
8	0	0	0	0	491	539	
9	0	0	0	0	496	530	
10	0	0	0	0	496	516	
11	0	0	0	0	497	504	
12	0	0	0	0	499	495	
13	0	0	0	0	503	483	
14	0	0	0	0	505	470	
15	0	0	0	0	518	473	
0	0	0	0	0	524	468	
1	0	0	0	0	535	476	
2	0	0	0	0	542	483	
3	0	0	0	0	549	492	
4	0	0	0	0	548	507	
5	0	0	0	0	544	516	
6	0	0	0	0	535	515	
7	0	0	0	0	526	527	
8	0	0	0	0	499	534	
9	0	0	0	0	482	534	
10	0	0	0	0	463	534	
11	0	0	0	0	452	532	
12	0	0	0	0	451	533	
13	0	0	0	0	455	526	
14	0	0	0	0	468	516	
15	0	0	0	0	492	512	
0	0	0	0	0	510	503	
1	0	0	0	0	527	493	
2	0	0	0	0	541	483	
3	0	0	0	0	550	477	
4	0	0	0	0	560	475	
5	0	0	0	0	566	478	
6	0	0	0	0	561	480	
7	0	0	0	0	556	487	
8	0	0	0	0	543	495	
9	0	0	0	0	537	506	
10	0	0	0	0	526	518	
11	0	0	0	0	507	526	
12	0	0	0	0	487	538	
13	0	0	0	0	467	538	
14	0	0	0	0	470	539	
15	0	0	0	0	467	540	
0	0	0	0	0	462	534	
1	0	0	0	0	474	526	
2	0	0	0	0	483	516	
3	0	0	0	0	495	508	
4	0	0	0	0	512	500	
5	0	0	0	0	528	489	
6	0	0	0	0	540	478	
7	0	0	0	0	551	473	
8	0	0	0	0	554	475	
9	0	0	0	0	555	477	
10	0	0	0	0	551	476	
11	0	0	0	0	547	483	
12	0	0	0	0	536	498	
13	0	0	0	0	525	509	
14	0	0	0	0	512	518	
15	0	0	0	0	505	530	
0	0	0	0	0	490	541	
1	0	0	0	0	477	543	
2	0	0	0	0	463	537	
3	0	0	0	0	461	540	
4	0	0	0	0	470	537	
5	0	0	0	0	482	531	
6	0	0	0	0	494	518	
7	0	0	0	0	505	505	
8	0	0	0	0	507	492	
9	0	0	0	0	517	480	
10	0	0	0	0	535	473	
11	0	0	0	0	551	475	
12	0	0	0	0	550	473	
13	0	0	0	0	539	476	
14	0	0	0	0	542	479	
15	0	0	0	0	545	491	
0	0	0	0	0	533	502	
1	0	0	0	0	522	508	
2	0	0	0	0	510	518	
3	0	0	0	0	497	523	
4	0	0	0	0	488	535	
5	0	0	0	0	484	543	
6	0	0	0	0	477	543	
7	0	0	0	0	473	539	
8	0	0	0	0	473	531	
9	0	0	0	0	471	522	
10	0	0	0	0	482	515	
11	0	0	0	0	498	505	
12	0	0	0	0	517	500	
13	0	0	0	0	531	495	
14	0	0	0	0	545	484	
15	0	0	0	0	552	477	
0	0	0	0	0	553	476	
1	0	0	0	0	551	476	
2	0	0	0	0	552	476	
3	0	0	0	0	540	485	
4	0	0	0	0	527	493	
5	0	0	0	0	526	502	
6	0	0	0	0	516	515	
7	0	0	0	0	506	529	
8	0	0	0	0	495	537	
9	0	0	0	0	480	543	
10	0	0	0	0	473	544	
11	0	0	0	0	463	540	
12	0	0	0	0	461	532	
13	0	0	0	0	467	528	
14	0	0	0	0	482	513	
15	0	0	0	0	494	504	
0	0	0	0	0	499	500	
1	0	0	0	0	516	489	
2	0	0	0	0	535	480	
3	0	0	0	0	554	474	
4	0	0	0	0	560	475	
5	0	0	0	0	563	477	
6	0	0	0	0	563	478	
7	0	0	0	0	556	486	
8	0	0	0	0	544	497	
9	0	0	0	0	533	507	
10	0	0	0	0	511	514	
11	0	0	0	0	498	525	
12	0	0	0	0	480	538	
13	0	0	0	0	472	541	
14	0	0	0	0	455	539	
15	0	0	0	0	460	544	
0	0	0	0	0	469	543	
1	0	0	0	0	479	530	
2	0	0	0	0	487	513	
3	0	0	0	0	499	504	
4	0	0	0	0	508	492	
5	0	0	0	0	521	484	
6	0	0	0	0	535	477	
7	0	0	0	0	545	476	
8	0	0	0	0	552	477	
9	0	0	0	0	551	477	
10	0	0	0	0	553	481	
11	0	0	0	0	549	489	
12	0	0	0	0	542	498	
13	0	0	0	0	535	508	
14	0	0	0	0	521	517	
15	0	0	0	0	504	526	
0	0	0	0	0	485	533	
1	0	0	0	0	471	540	
2	0	0	0	0	469	540	
3	0	0	0	0	472	542	
4	0	0	0	0	476	539	
5	0	0	0	0	481	529	
6	0	0	0	0	491	513	
7	0	0	0	0	506	506	
8	0	0	0	0	517	494	
9	0	0	0	0	528	486	
10	0	0	0	0	537	476	
11	0	0	0	0	540	474	
12	0	0	0	0	543	474	
13	0	0	0	0	543	476	
14	0	0	0	0	549	480	
15	0	0	0	0	542	484	
0	0	0	0	0	524	497	
1	0	0	0	0	516	509	
2	0	0	0	0	504	515	
3	0	0	0	0	492	527	
4	0	0	0	0	491	537	
5	0	0	0	0	483	540	
6	0	0	0	0	476	542	
7	0	0	0	0	473	541	
8	0	0	0	0	472	537	
9	0	0	0	0	478	527	
10	0	0	0	0	487	517	
11	0	0	0	0	502	507	
12	0	0	0	0	515	498	
13	0	0	0	0	528	485	
14	0	0	0	0	547	476	
15	0	0	0	0	551	472	
0	0	0	0	0	556	476	
1	0	0	0	0	560	481	
2	0	0	0	0	557	482	
3	0	0	0	0	554	488	
4	0	0	0	0	541	497	
5	0	0	0	0	529	508	
6	0	0	0	0	512	516	
7	0	0	0	0	494	527	
8	0	0	0	0	474	533	
9	0	0	0	0	459	537	
10	0	0	0	0	460	544	
11	0	0	0	0	464	546	
12	0	0	0	0	463	536	
13	0	0	0	0	468	523	
14	0	0	0	0	486	510	
15	0	0	0	0	501	503	
0	0	0	0	0	511	496	
1	0	0	0	0	525	482	
2	0	0	0	0	542	477	
3	0	0	0	0	552	479	
4	0	0	0	0	560	483	
5	0	0	0	0	557	483	
6	0	0	0	0	562	484	
7	0	0	0	0	560	492	
8	0	0	0	0	547	500	
9	0	0	0	0	539	505	
10	0	0	0	0	514	512	
11	0	0	0	0	485	517	
12	0	0	0	0	461	528	
13	0	0	0	0	458	532	
14	0	0	0	0	447	535	
15	0	0	0	0	461	542	
0	0	0	0	0	477	540	
1	0	0	0	0	487	536	
2	0	0	0	0	498	521	
3	0	0	0	0	510	510	
4	0	0	0	0	526	499	
5	0	0	0	0	538	490	
6	0	0	0	0	544	478	
7	0	0	0	0	553	471	
8	0	0	0	0	545	470	
9	0	0	0	0	533	468	
10	0	0	0	0	537	473	
11	0	0	0	0	538	485	
12	0	0	0	0	536	498	
13	0	0	0	0	528	508	
14	0	0	0	0	507	515	
15	0	0	0	0	492	527	
0	0	0	0	0	480	537	
1	0	0	0	0	473	540	
2	0	0	0	0	470	540	
3	0	0	0	0	465	542	
4	0	0	0	0	471	537	
5	0	0	0	0	481	531	
6	0	0	0	0	497	517	
7	0	0	0	0	508	509	
8	0	0	0	0	520	499	
9	0	0	0	0	537	487	
10	0	0	0	0	547	477	
11	0	0	0	0	547	471	
12	0	0	0	0	554	474	
13	0	0	0	0	557	475	
14	0	0	0	0	553	475	
15	0	0	0	0	549	484	
0	0	0	0	0	538	498	
1	0	0	0	0	519	507	
2	0	0	0	0	497	514	
3	0	0	0	0	487	527	
4	0	0	0	0	482	536	
5	0	0	0	0	473	545	
6	0	0	0	0	473	545	
7	0	0	0	0	475	543	
8	0	0	0	0	474	540	
9	0	0	0	0	481	528	
10	0	0	0	0	492	515	
11	0	0	0	0	500	508	
12	0	0	0	0	515	499	
13	0	0	0	0	528	487	
14	0	0	0	0	539	478	
15	0	0	0	0	551	472	
0	0	0	0	0	562	472	
1	0	0	0	0	560	473	
2	0	0	0	0	552	478	
3	0	0	0	0	540	486	
4	0	0	0	0	523	496	
5	0	0	0	0	515	507	
6	0	0	0	0	504	518	
7	0	0	0	0	481	528	
8	0	0	0	0	473	536	
9	0	0	0	0	472	542	
10	0	0	0	0	465	537	
11	0	0	0	0	467	535	
12	0	0	0	0	479	536	
13	0	0	0	0	487	532	
14	0	0	0	0	497	518	
15	0	0	0	0	508	509	
0	0	0	0	0	524	500	
1	0	0	0	0	537	490	
2	0	0	0	0	542	481	
3	0	0	0	0	552	474	
4	0	0	0	0	552	472	
5	0	0	0	0	550	475	
6	0	0	0	0	545	476	
7	0	0	0	0	536	485	
8	0	0	0	0	531	493	
9	0	0	0	0	525	502	
10	0	0	0	0	521	514	
11	0	0	0	0	515	527	
12	0	0	0	0	492	535	
13	0	0	0	0	465	538	
14	0	0	0	0	461	539	
15	0	0	0	0	466	537	
0	0	0	0	0	459	533	
1	0	0	0	0	463	528	
2	0	0	0	0	484	522	
3	0	0	0	0	493	513	
4	0	0	0	0	512	502	
5	0	0	0	0	524	490	
6	0	0	0	0	518	482	
7	0	0	0	0	543	480	
8	0	0	0	0	561	475	
9	0	0	0	0	555	476	
10	0	0	0	0	552	480	
11	0	0	0	0	557	487	
12	0	0	0	0	538	499	
13	0	0	0	0	530	508	
14	0	0	0	0	522	515	
15	0	0	0	0	508	527	
0	0	0	0	0	501	538	
1	0	0	0	0	489	542	
2	0	0	0	0	480	545	
3	0	0	0	0	480	543	
4	0	0	0	0	478	533	
5	0	0	0	0	475	521	
6	0	0	0	0	466	507	
7	0	0	0	0	475	498	
8	0	0	0	0	495	494	
9	0	0	0	0	506	491	
10	0	0	0	0	521	480	
11	0	0	0	0	540	470	
12	0	0	0	0	561	473	
13	0	0	0	0	560	477	
14	0	0	0	0	564	478	
15	0	0	0	0	561	487	
0	0	0	0	0	529	494	
1	0	0	0	0	515	505	
2	0	0	0	0	513	519	
3	0	0	0	0	502	531	
4	0	0	0	0	486	540	
5	0	0	0	0	476	543	
6	0	0	0	0	478	542	
7	0	0	0	0	478	538	
8	0	0	0	0	477	530	
9	0	0	0	0	482	526	
10	0	0	0	0	489	512	
11	0	0	0	0	502	507	
12	0	0	0	0	511	497	
13	0	0	0	0	529	490	
14	0	0	0	0	540	485	
15	0	0	0	0	535	473	
0	0	0	0	0	546	473	
1	0	0	0	0	551	478	
2	0	0	0	0	556	479	
3	0	0	0	0	559	488	
4	0	0	0	0	539	497	
5	0	0	0	0	512	507	
6	0	0	0	0	505	520	
7	0	0	0	0	479	527	
8	0	0	0	0	471	533	
9	0	0	0	0	475	539	
10	0	0	0	0	486	540	
11	0	0	0	0	480	539	
12	0	0	0	0	480	536	
13	0	0	0	0	489	530	
14	0	0	0	0	495	517	
15	0	0	0	0	505	505	
0	0	0	0	0	498	490	
1	0	0	0	0	512	482	
2	0	0	0	0	526	476	
3	0	0	0	0	542	479	
4	0	0	0	0	548	478	
5	0	0	0	0	554	472	
6	0	0	0	0	567	476	
7	0	0	0	0	557	488	
8	0	0	0	0	543	499	
9	0	0	0	0	530	511	
10	0	0	0	0	520	524	
11	0	0	0	0	508	535	
12	0	0	0	0	495	543	
13	0	0	0	0	480	546	
14	0	0	0	0	465	540	
15	0	0	0	0	444	530	
0	0	0	0	0	454	525	
1	0	0	0	0	472	519	
2	0	0	0	0	480	513	
3	0	0	0	0	492	513	
4	0	0	0	0	518	504	
5	0	0	0	0	543	496	
6	0	0	0	0	553	483	
7	0	0	0	0	559	473	
8	0	0	0	0	559	471	
9	0	0	0	0	552	472	
10	0	0	0	0	540	464	
11	0	0	0	0	528	472	
12	0	0	0	0	524	494	
13	0	0	0	0	519	512	
14	0	0	0	0	509	527	
15	0	0	0	0	495	539	
0	0	0	0	0	484	541	
1	0	0	0	0	484	543	
2	0	0	0	0	475	534	
3	0	0	0	0	469	537	
4	0	0	0	0	469	538	
5	0	0	0	0	485	526	
6	0	0	0	0	498	514	
7	0	0	0	0	515	507	
8	0	0	0	0	521	504	
9	0	0	0	0	513	486	
10	0	0	0	0	526	477	
11	0	0	0	0	545	474	
12	0	0	0	0	530	467	
13	0	0	0	0	542	470	
14	0	0	0	0	553	472	
15	0	0	0	0	542	484	
0	0	0	0	0	526	499	
1	0	0	0	0	525	511	
2	0	0	0	0	521	518	
3	0	0	0	0	504	533	
4	0	0	0	0	496	541	
5	0	0	0	0	495	547	
6	0	0	0	0	499	550	
7	0	0	0	0	497	545	
8	0	0	0	0	477	531	
9	0	0	0	0	478	520	
10	0	0	0	0	472	503	
11	0	0	0	0	476	508	
12	0	0	0	0	486	499	
13	0	0	0	0	515	490	
14	0	0	0	0	520	478	
15	0	0	0	0	538	472	
0	0	0	0	0	560	476	
1	0	0	0	0	557	476	
2	0	0	0	0	545	476	
3	0	0	0	0	547	483	
4	0	0	0	0	535	493	
5	0	0	0	0	527	504	
6	0	0	0	0	520	522	
7	0	0	0	0	503	537	
8	0	0	0	0	474	541	
9	0	0	0	0	480	545	
10	0	0	0	0	489	544	
11	0	0	0	0	483	538	
12	0	0	0	0	458	528	
13	0	0	0	0	461	518	
14	0	0	0	0	487	510	
15	0	0	0	0	508	507	
0	0	0	0	0	521	504	
1	0	0	0	0	535	489	
2	0	0	0	0	538	480	
3	0	0	0	0	540	472	
4	0	0	0	0	550	473	
5	0	0	0	0	555	474	
6	0	0	0	0	554	478	
7	0	0	0	0	545	488	
8	0	0	0	0	519	496	
9	0	0	0	0	519	506	
10	0	0	0	0	513	515	
11	0	0	0	0	504	530	
12	0	0	0	0	511	542	
13	0	0	0	0	487	539	
14	0	0	0	0	458	538	
15	0	0	0	0	466	540	
0	0	0	0	0	477	543	
1	0	0	0	0	487	533	
2	0	0	0	0	488	520	
3	0	0	0	0	497	507	
4	0	0	0	0	498	492	
5	0	0	0	0	517	489	
6	0	0	0	0	532	478	
7	0	0	0	0	540	473	
8	0	0	0	0	560	479	
9	0	0	0	0	564	479	
10	0	0	0	0	555	476	
11	0	0	0	0	543	484	
12	0	0	0	0	532	490	
13	0	0	0	0	524	496	
14	0	0	0	0	495	511	
15	0	0	0	0	474	529	
0	0	0	0	0	473	538	
1	0	0	0	0	465	535	
2	0	0	0	0	478	550	
3	0	0	0	0	489	554	
4	0	0	0	0	516	551	
5	0	0	0	0	514	541	
6	0	0	0	0	501	523	
7	0	0	0	0	493	503	
8	0	0	0	0	471	478	
9	0	0	0	0	495	473	
10	0	0	0	0	518	467	
11	0	0	0	0	531	470	
12	0	0	0	0	544	480	
13	0	0	0	0	558	479	
14	0	0	0	0	564	479	
15	0	0	0	0	551	483	
0	0	0	0	0	531	494	
1	0	0	0	0	514	505	
2	0	0	0	0	497	515	
3	0	0	0	0	515	525	
4	0	0	0	0	516	545	
5	0	0	0	0	494	547	
6	0	0	0	0	491	540	
7	0	0	0	0	468	541	
8	0	0	0	0	440	534	
9	0	0	0	0	453	525	
10	0	0	0	0	489	518	
11	0	0	0	0	521	510	
12	0	0	0	0	534	494	
13	0	0	0	0	535	480	
14	0	0	0	0	559	478	
15	0	0	0	0	572	473	
0	0	0	0	0	562	469	
1	0	0	0	0	535	474	
2	0	0	0	0	513	476	
3	0	0	0	0	517	491	
4	0	0	0	0	499	498	
5	0	0	0	0	504	504	
6	0	0	0	0	477	508	
7	0	0	0	0	483	530	
8	0	0	0	0	492	546	
9	0	0	0	0	498	551	
10	0	0	0	0	496	550	
11	0	0	0	0	506	551	
12	0	0	0	0	504	551	
13	0	0	0	0	503	534	
14	0	0	0	0	497	508	
15	0	0	0	0	513	498	
0	0	0	0	0	530	497	
1	0	0	0	0	536	484	
2	0	0	0	0	544	470	
3	0	0	0	0	513	463	
4	0	0	0	0	487	465	
5	0	0	0	0	491	463	
6	0	0	0	0	505	468	
7	0	0	0	0	531	485	
8	0	0	0	0	553	511	
9	0	0	0	0	556	523	
10	0	0	0	0	566	531	
11	0	0	0	0	539	541	
12	0	0	0	0	497	537	
13	0	0	0	0	526	546	
14	0	0	0	0	487	533	
15	0	0	0	0	451	527	
0	0	0	0	0	435	532	
1	0	0	0	0	431	523	
2	0	0	0	0	474	511	
3	0	0	0	0	510	509	
4	0	0	0	0	497	497	
5	0	0	0	0	504	490	
6	0	0	0	0	525	479	
7	0	0	0	0	537	469	
8	0	0	0	0	547	463	
9	0	0	0	0	549	472	
10	0	0	0	0	556	477	
11	0	0	0	0	573	492	
12	0	0	0	0	560	507	
13	0	0	0	0	550	512	
14	0	0	0	0	519	509	
15	0	0	0	0	484	514	
0	0	0	0	0	470	531	
1	0	0	0	0	449	544	
2	0	0	0	0	446	542	
3	0	0	0	0	483	546	
4	0	0	0	0	499	547	
5	0	0	0	0	512	530	
6	0	0	0	0	533	520	
7	0	0	0	0	550	510	
8	0	0	0	0	548	497	
9	0	0	0	0	534	487	
10	0	0	0	0	490	477	
11	0	0	0	0	474	470	
12	0	0	0	0	472	463	
13	0	0	0	0	525	474	
14	0	0	0	0	539	475	
15	0	0	0	0	536	483	
0	0	0	0	0	563	507	
1	0	0	0	0	545	511	
2	0	0	0	0	496	508	
3	0	0	0	0	475	510	
4	0	0	0	0	479	522	
5	0	0	0	0	508	542	
6	0	0	0	0	537	550	
7	0	0	0	0	542	556	
8	0	0	0	0	540	555	
9	0	0	0	0	495	536	
10	0	0	0	0	477	516	
11	0	0	0	0	455	493	
12	0	0	0	0	435	486	
13	0	0	0	0	440	481	
14	0	0	0	0	518	478	
15	0	0	0	0	543	479	
0	0	0	0	0	555	472	
1	0	0	0	0	577	478	
2	0	0	0	0	583	475	
3	0	0	0	0	564	491	
4	0	0	0	0	538	508	
5	0	0	0	0	526	515	
6	0	0	0	0	502	515	
7	0	0	0	0	465	531	
8	0	0	0	0	458	547	
9	0	0	0	0	455	543	
10	0	0	0	0	466	550	
11	0	0	0	0	474	549	
12	0	0	0	0	530	546	
13	0	0	0	0	570	519	
14	0	0	0	0	576	501	
15	0	0	0	0	560	493	
0	0	0	0	0	519	473	
1	0	0	0	0	506	472	
2	0	0	0	0	425	471	
3	0	0	0	0	446	478	
4	0	0	0	0	479	474	
5	0	0	0	0	515	487	
6	0	0	0	0	549	492	
7	0	0	0	0	575	497	
8	0	0	0	0	585	510	
9	0	0	0	0	539	505	
10	0	0	0	0	573	517	
11	0	0	0	0	574	529	
12	0	0	0	0	553	543	
13	0	0	0	0	509	551	
14	0	0	0	0	427	547	
15	0	0	0	0	424	542	
0	0	0	0	0	482	534	
1	0	0	0	0	418	510	
2	0	0	0	0	376	492	
3	0	0	0	0	411	489	
4	0	0	0	0	447	484	
5	0	0	0	0	484	477	
6	0	0	0	0	566	479	
7	0	0	0	0	612	483	
8	0	0	0	0	642	493	
9	0	0	0	0	641	500	
10	0	0	0	0	600	488	
11	0	0	0	0	536	478	
12	0	0	0	0	552	488	
13	0	0	0	0	561	492	
14	0	0	0	0	462	504	
15	0	0	0	0	447	531	
0	0	0	0	0	477	558	
1	0	0	0	0	463	562	
2	0	0	0	0	489	550	
3	0	0	0	0	496	534	
4	0	0	0	0	556	536	
5	0	0	0	0	590	538	
6	0	0	0	0	553	515	
7	0	0	0	0	491	493	
8	0	0	0	0	440	476	
9	0	0	0	0	412	471	
10	0	0	0	0	393	456	
11	0	0	0	0	469	468	
12	0	0	0	0	499	480	
13	0	0	0	0	524	484	
14	0	0	0	0	553	490	
15	0	0	0	0	589	504	
0	0	0	0	0	579	503	
1	0	0	0	0	612	516	
2	0	0	0	0	609	529	
3	0	0	0	0	571	535	
4	0	0	0	0	494	539	
5	0	0	0	0	460	547	
6	0	0	0	0	473	539	
7	0	0	0	0	380	520	
8	0	0	0	0	312	508	
9	0	0	0	0	373	504	
10	0	0	0	0	415	513	
11	0	0	0	0	520	528	
12	0	0	0	0	580	522	
13	0	0	0	0	610	508	
14	0	0	0	0	621	493	
15	0	0	0	0	565	468	
0	0	0	0	0	538	450	
1	0	0	0	0	531	455	
2	0	0	0	0	508	458	
3	0	0	0	0	543	480	
4	0	0	0	0	566	497	
5	0	0	0	0	575	512	
6	0	0	0	0	553	523	
7	0	0	0	0	503	531	
8	0	0	0	0	422	537	
9	0	0	0	0	381	536	
10	0	0	0	0	397	540	
11	0	0	0	0	455	545	
12	0	0	0	0	540	559	
13	0	0	0	0	579	548	
14	0	0	0	0	561	522	
15	0	0	0	0	541	498	
0	0	0	0	0	472	482	
1	0	0	0	0	442	486	
2	0	0	0	0	536	500	
3	0	0	0	0	593	487	
4	0	0	0	0	615	461	
5	0	0	0	0	632	459	
6	0	0	0	0	670	480	
7	0	0	0	0	601	495	
8	0	0	0	0	455	500	
9	0	0	0	0	381	494	
10	0	0	0	0	376	509	
11	0	0	0	0	404	515	
12	0	0	0	0	405	516	
13	0	0	0	0	444	541	
14	0	0	0	0	510	550	
15	0	0	0	0	603	545	
0	0	0	0	0	615	540	
1	0	0	0	0	607	531	
2	0	0	0	0	564	519	
3	0	0	0	0	539	514	
4	0	0	0	0	473	493	
5	0	0	0	0	440	482	
6	0	0	0	0	455	483	
7	0	0	0	0	538	486	
8	0	0	0	0	600	492	
9	0	0	0	0	623	491	
10	0	0	0	0	623	488	
11	0	0	0	0	505	492	
12	0	0	0	0	358	468	
13	0	0	0	0	302	483	
14	0	0	0	0	302	503	
15	0	0	0	0	323	506	
0	0	0	0	0	441	531	
1	0	0	0	0	470	548	
2	0	0	0	0	532	555	
3	0	0	0	0	569	546	
4	0	0	0	0	604	555	
5	0	0	0	0	567	531	
6	0	0	0	0	532	501	
7	0	0	0	0	595	509	
8	0	0	0	0	576	513	
9	0	0	0	0	503	496	
10	0	0	0	0	574	483	
11	0	0	0	0	735	484	
12	0	0	0	0	899	495	
13	0	0	0	0	817	483	
14	0	0	0	0	669	480	
15	0	0	0	0	455	455	
0	0	0	0	0	329	469	
1	0	0	0	0	313	487	
2	0	0	0	0	265	483	
3	0	0	0	0	294	517	
4	0	0	0	0	319	536	
5	0	0	0	0	339	531	
6	0	0	0	0	362	553	
7	0	0	0	0	348	572	
8	0	0	0	0	475	568	
9	0	0	0	0	531	547	
10	0	0	0	0	508	518	
11	0	0	0	0	515	486	
12	0	0	0	0	606	488	
13	0	0	0	0	607	492	
14	0	0	0	0	679	487	
15	0	0	0	0	679	482	
0	0	0	0	0	716	476	
1	0	0	0	0	693	472	
2	0	0	0	0	663	486	
3	0	0	0	0	551	487	
4	0	0	0	0	457	496	
5	0	0	0	0	451	498	
6	0	0	0	0	428	516	
7	0	0	0	0	384	527	
8	0	0	0	0	470	536	
9	0	0	0	0	460	524	
10	0	0	0	0	438	510	
11	0	0	0	0	440	509	
12	0	0	0	0	411	521	
13	0	0	0	0	499	532	
14	0	0	0	0	605	543	
15	0	0	0	0	654	547	
0	0	0	0	0	620	529	
1	0	0	0	0	603	507	
2	0	0	0	0	597	481	
3	0	0	0	0	549	473	
4	0	0	0	0	489	457	
5	0	0	0	0	386	465	
6	0	0	0	0	393	465	
7	0	0	0	0	415	485	
8	0	0	0	0	430	500	
9	0	0	0	0	486	503	
10	0	0	0	0	477	511	
11	0	0	0	0	469	520	
12	0	0	0	0	499	548	
13	0	0	0	0	516	555	
14	0	0	0	0	517	558	
15	0	0	0	0	510	545	
0	0	0	0	0	476	507	
1	0	0	0	0	534	494	
2	0	0	0	0	606	490	
3	0	0	0	0	598	506	
4	0	0	0	0	543	514	
5	0	0	0	0	477	496	
6	0	0	0	0	620	494	
7	0	0	0	0	740	519	
8	0	0	0	0	795	511	
9	0	0	0	0	778	496	
10	0	0	0	0	594	477	
11	0	0	0	0	363	465	
12	0	0	0	0	219	445	
13	0	0	0	0	86	451	
14	0	0	0	0	119	477	
15	0	0	0	0	336	538	
0	0	0	0	0	585	575	
1	0	0	0	0	698	563	
2	0	0	0	0	679	545	
3	0	0	0	0	576	536	
4	0	0	0	0	534	552	
5	0	0	0	0	485	547	
6	0	0	0	0	457	528	
7	0	0	0	0	412	508	
8	0	0	0	0	395	486	
9	0	0	0	0	487	464	
10	0	0	0	0	547	445	
11	0	0	0	0	562	440	
12	0	0	0	0	545	454	
13	0	0	0	0	572	491	
14	0	0	0	0	594	501	
15	0	0	0	0	591	508	
0	0	0	0	0	573	523	
1	0	0	0	0	476	517	
2	0	0	0	0	411	513	
3	0	0	0	0	341	512	
4	0	0	0	0	399	534	
5	0	0	0	0	523	558	
6	0	0	0	0	575	558	
7	0	0	0	0	593	546	
8	0	0	0	0	559	526	
9	0	0	0	0	476	527	
10	0	0	0	0	393	524	
11	0	0	0	0	491	514	
12	0	0	0	0	572	479	
13	0	0	0	0	733	478	
14	0	0	0	0	748	466	
15	0	0	0	0	719	476	
0	0	0	0	0	689	488	
1	0	0	0	0	556	488	
2	0	0	0	0	406	470	
3	0	0	0	0	404	457	
4	0	0	0	0	440	490	
5	0	0	0	0	418	505	
6	0	0	0	0	503	521	
7	0	0	0	0	542	537	
8	0	0	0	0	461	537	
9	0	0	0	0	353	536	
10	0	0	0	0	256	535	
11	0	0	0	0	355	540	
12	0	0	0	0	432	548	
13	0	0	0	0	467	547	
14	0	0	0	0	573	508	
15	0	0	0	0	563	495	
0	0	0	0	0	552	505	
1	0	0	0	0	586	479	
2	0	0	0	0	660	483	
3	0	0	0	0	646	479	
4	0	0	0	0	627	456	
5	0	0	0	0	640	460	
6	0	0	0	0	640	473	
7	0	0	0	0	642	495	
8	0	0	0	0	547	508	
9	0	0	0	0	476	522	
10	0	0	0	0	287	509	
11	0	0	0	0	142	511	
12	0	0	0	0	218	540	
13	0	0	0	0	279	558	
14	0	0	0	0	432	564	
15	0	0	0	0	620	556	
0	0	0	0	0	668	554	
1	0	0	0	0	606	529	
2	0	0	0	0	590	503	
3	0	0	0	0	536	484	
4	0	0	0	0	496	484	
5	0	0	0	0	524	490	
6	0	0	0	0	598	477	
7	0	0	0	0	724	468	
8	0	0	0	0	806	470	
9	0	0	0	0	699	475	
10	0	0	0	0	575	479	
11	0	0	0	0	348	465	
12	0	0	0	0	173	460	
13	0	0	0	0	186	487	
14	0	0	0	0	304	524	
15	0	0	0	0	321	545	
0	0	0	0	0	424	566	
1	0	0	0	0	511	558	
2	0	0	0	0	568	546	
3	0	0	0	0	581	540	
4	0	0	0	0	617	537	
5	0	0	0	0	644	538	
6	0	0	0	0	636	520	
7	0	0	0	0	623	504	
8	0	0	0	0	603	492	
9	0	0	0	0	587	482	
10	0	0	0	0	580	486	
11	0	0	0	0	590	495	
12	0	0	0	0	568	474	
13	0	0	0	0	514	468	
14	0	0	0	0	445	469	
15	0	0	0	0	488	462	
0	0	0	0	0	549	490	
1	0	0	0	0	599	508	
2	0	0	0	0	588	518	
3	0	0	0	0	548	531	
4	0	0	0	0	498	540	
5	0	0	0	0	365	543	
6	0	0	0	0	343	547	
7	0	0	0	0	368	546	
8	0	0	0	0	342	544	
9	0	0	0	0	294	520	
10	0	0	0	0	409	515	
11	0	0	0	0	591	520	
12	0	0	0	0	746	503	
13	0	0	0	0	800	496	
14	0	0	0	0	696	486	
15	0	0	0	0	554	469	
0	0	0	0	0	336	456	
1	0	0	0	0	243	456	
2	0	0	0	0	298	487	
3	0	0	0	0	404	503	
4	0	0	0	0	495	490	
5	0	0	0	0	527	491	
6	0	0	0	0	537	504	
7	0	0	0	0	566	513	
8	0	0	0	0	572	533	
9	0	0	0	0	581	548	
10	0	0	0	0	566	542	
11	0	0	0	0	566	541	
12	0	0	0	0	561	534	
13	0	0	0	0	569	528	
14	0	0	0	0	531	519	
15	0	0	0	0	517	514	
0	0	0	0	0	479	508	
1	0	0	0	0	465	494	
2	0	0	0	0	478	482	
3	0	0	0	0	567	488	
4	0	0	0	0	647	494	
5	0	0	0	0	676	481	
6	0	0	0	0	744	472	
7	0	0	0	0	727	478	
8	0	0	0	0	605	484	
9	0	0	0	0	465	505	
10	0	0	0	0	347	516	
11	0	0	0	0	276	520	
12	0	0	0	0	296	524	
13	0	0	0	0	367	537	
14	0	0	0	0	457	539	
15	0	0	0	0	442	540	
0	0	0	0	0	403	530	
1	0	0	0	0	412	527	
2	0	0	0	0	426	523	
3	0	0	0	0	403	507	
4	0	0	0	0	437	499	
5	0	0	0	0	500	489	
6	0	0	0	0	563	481	
7	0	0	0	0	596	479	
8	0	0	0	0	618	480	
9	0	0	0	0	619	482	
10	0	0	0	0	620	478	
11	0	0	0	0	614	485	
12	0	0	0	0	585	498	
13	0	0	0	0	571	505	
14	0	0	0	0	554	514	
15	0	0	0	0	535	530	
0	0	0	0	0	508	537	
1	0	0	0	0	502	539	
2	0	0	0	0	479	539	
3	0	0	0	0	464	540	
4	0	0	0	0	457	536	
5	0	0	0	0	451	528	
6	0	0	0	0	477	517	
7	0	0	0	0	495	507	
8	0	0	0	0	510	496	
9	0	0	0	0	539	488	
10	0	0	0	0	561	480	
11	0	0	0	0	572	473	
12	0	0	0	0	577	474	
13	0	0	0	0	555	476	
14	0	0	0	0	525	475	
15	0	0	0	0	507	483	
0	0	0	0	0	512	498	
1	0	0	0	0	509	510	
2	0	0	0	0	503	517	
3	0	0	0	0	493	530	
4	0	0	0	0	477	535	
5	0	0	0	0	476	539	
6	0	0	0	0	477	539	
7	0	0	0	0	475	542	
8	0	0	0	0	497	537	
9	0	0	0	0	497	527	
10	0	0	0	0	500	517	
11	0	0	0	0	496	504	
12	0	0	0	0	497	496	
13	0	0	0	0	488	488	
14	0	0	0	0	498	478	
15	0	0	0	0	536	474	
0	0	0	0	0	567	476	
1	0	0	0	0	557	478	
2	0	0	0	0	550	480	
3	0	0	0	0	547	488	
4	0	0	0	0	539	498	
5	0	0	0	0	535	508	
6	0	0	0	0	523	519	
7	0	0	0	0	510	535	
8	0	0	0	0	495	541	
9	0	0	0	0	481	540	
10	0	0	0	0	484	541	
11	0	0	0	0	493	542	
12	0	0	0	0	482	536	
13	0	0	0	0	472	521	
14	0	0	0	0	464	503	
15	0	0	0	0	468	499	
0	0	0	0	0	465	497	
1	0	0	0	0	490	495	
2	0	0	0	0	535	489	
3	0	0	0	0	554	488	
4	0	0	0	0	560	492	
5	0	0	0	0	563	489	
6	0	0	0	0	562	482	
7	0	0	0	0	553	482	
8	0	0	0	0	535	489	
9	0	0	0	0	519	505	
10	0	0	0	0	504	514	
11	0	0	0	0	493	509	
12	0	0	0	0	487	498	
13	0	0	0	0	491	510	
14	0	0	0	0	495	524	
15	0	0	0	0	496	554	
0	0	0	0	0	482	565	
1	0	0	0	0	481	550	
2	0	0	0	0	487	533	
3	0	0	0	0	498	512	
4	0	0	0	0	511	487	
5	0	0	0	0	519	477	
6	0	0	0	0	538	486	
7	0	0	0	0	548	493	
8	0	0	0	0	557	477	
9	0	0	0	0	551	465	
10	0	0	0	0	548	473	
11	0	0	0	0	543	480	
12	0	0	0	0	522	491	
13	0	0	0	0	509	496	
14	0	0	0	0	506	503	
15	0	0	0	0	500	513	
0	0	0	0	0	491	527	
1	0	0	0	0	487	561	
2	0	0	0	0	485	553	
3	0	0	0	0	478	551	
4	0	0	0	0	469	543	
5	0	0	0	0	470	529	
6	0	0	0	0	481	510	
7	0	0	0	0	493	502	
8	0	0	0	0	504	489	
9	0	0	0	0	511	461	
10	0	0	0	0	528	449	
11	0	0	0	0	548	467	
12	0	0	0	0	562	485	
13	0	0	0	0	562	486	
14	0	0	0	0	562	489	
15	0	0	0	0	563	512	
0	0	0	0	0	545	517	
1	0	0	0	0	529	525	
2	0	0	0	0	508	530	
3	0	0	0	0	489	543	
4	0	0	0	0	473	556	
5	0	0	0	0	467	559	
6	0	0	0	0	460	538	
7	0	0	0	0	460	533	
8	0	0	0	0	464	524	
9	0	0	0	0	473	512	
10	0	0	0	0	478	488	
11	0	0	0	0	487	465	
12	0	0	0	0	506	476	
13	0	0	0	0	527	457	
14	0	0	0	0	545	442	
15	0	0	0	0	566	487	
0	0	0	0	0	578	505	
1	0	0	0	0	574	495	
2	0	0	0	0	565	491	
3	0	0	0	0	541	508	
4	0	0	0	0	526	524	
5	0	0	0	0	515	524	
6	0	0	0	0	504	519	
7	0	0	0	0	490	522	
8	0	0	0	0	476	524	
9	0	0	0	0	470	520	
10	0	0	0	0	464	525	
11	0	0	0	0	469	530	
12	0	0	0	0	469	531	
13	0	0	0	0	478	524	
14	0	0	0	0	496	529	
15	0	0	0	0	518	527	
0	0	0	0	0	529	520	
1	0	0	0	0	533	506	
2	0	0	0	0	539	491	
3	0	0	0	0	540	472	
4	0	0	0	0	542	465	
5	0	0	0	0	544	465	
6	0	0	0	0	544	458	
7	0	0	0	0	540	472	
8	0	0	0	0	536	479	
9	0	0	0	0	527	490	
10	0	0	0	0	522	516	
11	0	0	0	0	515	546	
12	0	0	0	0	496	553	
13	0	0	0	0	473	551	
14	0	0	0	0	467	541	
15	0	0	0	0	465	540	
0	0	0	0	0	465	532	
1	0	0	0	0	473	528	
2	0	0	0	0	488	524	
3	0	0	0	0	500	515	
4	0	0	0	0	508	501	
5	0	0	0	0	517	479	
6	0	0	0	0	534	474	
7	0	0	0	0	545	476	
8	0	0	0	0	549	467	
9	0	0	0	0	548	472	
10	0	0	0	0	548	476	
11	0	0	0	0	543	479	
12	0	0	0	0	532	488	
13	0	0	0	0	523	508	
14	0	0	0	0	512	525	
15	0	0	0	0	503	536	
0	0	0	0	0	490	538	
1	0	0	0	0	479	536	
2	0	0	0	0	468	527	
3	0	0	0	0	469	535	
4	0	0	0	0	470	541	
5	0	0	0	0	476	540	
6	0	0	0	0	493	526	
7	0	0	0	0	504	505	
8	0	0	0	0	512	496	
9	0	0	0	0	527	487	
10	0	0	0	0	541	480	
11	0	0	0	0	548	472	
12	0	0	0	0	554	475	
13	0	0	0	0	553	477	
14	0	0	0	0	551	482	
15	0	0	0	0	544	484	
0	0	0	0	0	532	494	
1	0	0	0	0	520	504	
2	0	0	0	0	502	508	
3	0	0	0	0	496	521	
4	0	0	0	0	488	536	
5	0	0	0	0	476	537	
6	0	0	0	0	475	542	
7	0	0	0	0	474	545	
8	0	0	0	0	475	540	
9	0	0	0	0	481	529	
10	0	0	0	0	488	512	
11	0	0	0	0	499	509	
12	0	0	0	0	506	502	
13	0	0	0	0	520	494	
14	0	0	0	0	536	487	
15	0	0	0	0	545	479	
0	0	0	0	0	548	470	
1	0	0	0	0	544	470	
2	0	0	0	0	550	472	
3	0	0	0	0	549	484	
4	0	0	0	0	540	506	
5	0	0	0	0	525	509	
6	0	0	0	0	511	507	
7	0	0	0	0	503	518	
8	0	0	0	0	490	536	
9	0	0	0	0	485	543	
10	0	0	0	0	480	538	
11	0	0	0	0	478	536	
12	0	0	0	0	468	541	
13	0	0	0	0	471	534	
14	0	0	0	0	481	512	
15	0	0	0	0	492	494	
0	0	0	0	0	510	489	
1	0	0	0	0	527	485	
2	0	0	0	0	544	495	
3	0	0	0	0	555	493	
4	0	0	0	0	556	487	
5	0	0	0	0	553	482	
6	0	0	0	0	550	476	
7	0	0	0	0	542	486	
8	0	0	0	0	530	489	
9	0	0	0	0	519	504	
10	0	0	0	0	511	517	
11	0	0	0	0	498	518	
12	0	0	0	0	482	524	
13	0	0	0	0	475	536	
14	0	0	0	0	477	551	
15	0	0	0	0	477	548	
0	0	0	0	0	471	527	
1	0	0	0	0	469	510	
2	0	0	0	0	484	508	
3	0	0	0	0	503	504	
4	0	0	0	0	516	506	
5	0	0	0	0	531	494	
6	0	0	0	0	542	485	
7	0	0	0	0	547	479	
8	0	0	0	0	548	478	
9	0	0	0	0	550	480	
10	0	0	0	0	553	481	
11	0	0	0	0	549	488	
12	0	0	0	0	538	497	
13	0	0	0	0	526	505	
14	0	0	0	0	514	516	
15	0	0	0	0	504	527	
0	0	0	0	0	490	534	
1	0	0	0	0	480	539	
2	0	0	0	0	472	539	
3	0	0	0	0	472	537	
4	0	0	0	0	472	534	
5	0	0	0	0	477	524	
6	0	0	0	0	489	511	
7	0	0	0	0	498	505	
8	0	0	0	0	508	497	
9	0	0	0	0	521	489	
10	0	0	0	0	536	487	
11	0	0	0	0	545	487	
12	0	0	0	0	554	482	
13	0	0	0	0	554	479	
14	0	0	0	0	553	478	
15	0	0	0	0	547	484	
0	0	0	0	0	534	492	
1	0	0	0	0	521	504	
2	0	0	0	0	511	515	
3	0	0	0	0	500	527	
4	0	0	0	0	486	536	
5	0	0	0	0	478	539	
6	0	0	0	0	472	539	
7	0	0	0	0	471	540	
8	0	0	0	0	473	533	
9	0	0	0	0	477	522	
10	0	0	0	0	483	508	
11	0	0	0	0	499	505	
12	0	0	0	0	513	501	
13	0	0	0	0	525	486	
14	0	0	0	0	541	479	
15	0	0	0	0	549	478	
0	0	0	0	0	551	481	
1	0	0	0	0	550	478	
2	0	0	0	0	547	481	
3	0	0	0	0	543	487	
4	0	0	0	0	533	496	
5	0	0	0	0	524	509	
6	0	0	0	0	517	518	
7	0	0	0	0	504	531	
8	0	0	0	0	489	539	
9	0	0	0	0	479	536	
10	0	0	0	0	473	536	
11	0	0	0	0	467	542	
12	0	0	0	0	470	540	
13	0	0	0	0	476	532	
14	0	0	0	0	487	519	
15	0	0	0	0	496	505	
0	0	0	0	0	511	496	
1	0	0	0	0	526	484	
2	0	0	0	0	538	476	
3	0	0	0	0	548	471	
4	0	0	0	0	554	471	
5	0	0	0	0	551	475	
6	0	0	0	0	550	480	
7	0	0	0	0	543	486	
8	0	0	0	0	534	496	
9	0	0	0	0	528	506	
10	0	0	0	0	515	518	
11	0	0	0	0	504	530	
12	0	0	0	0	484	535	
13	0	0	0	0	478	537	
14	0	0	0	0	475	540	
15	0	0	0	0	469	543	
0	0	0	0	0	467	542	
1	0	0	0	0	477	530	
2	0	0	0	0	483	511	
3	0	0	0	0	500	499	
4	0	0	0	0	512	498	
5	0	0	0	0	526	490	
6	0	0	0	0	538	481	
7	0	0	0	0	547	476	
8	0	0	0	0	549	476	
9	0	0	0	0	551	477	
10	0	0	0	0	552	480	
11	0	0	0	0	547	486	
12	0	0	0	0	537	496	
13	0	0	0	0	527	506	
14	0	0	0	0	512	514	
15	0	0	0	0	497	527	
0	0	0	0	0	484	536	
1	0	0	0	0	476	541	
2	0	0	0	0	471	540	
3	0	0	0	0	470	541	
4	0	0	0	0	469	537	
5	0	0	0	0	478	527	
6	0	0	0	0	489	513	
7	0	0	0	0	499	506	
8	0	0	0	0	513	497	
9	0	0	0	0	527	487	
10	0	0	0	0	538	478	
11	0	0	0	0	542	475	
12	0	0	0	0	551	476	
13	0	0	0	0	554	477	
14	0	0	0	0	555	479	
15	0	0	0	0	548	487	
0	0	0	0	0	538	499	
1	0	0	0	0	524	510	
2	0	0	0	0	512	514	
3	0	0	0	0	497	523	
4	0	0	0	0	481	532	
5	0	0	0	0	476	538	
6	0	0	0	0	472	543	
7	0	0	0	0	472	542	
8	0	0	0	0	475	536	
9	0	0	0	0	484	525	
10	0	0	0	0	490	514	
11	0	0	0	0	499	506	
12	0	0	0	0	506	495	
13	0	0	0	0	521	491	
14	0	0	0	0	537	483	
15	0	0	0	0	548	479	
0	0	0	0	0	552	475	
1	0	0	0	0	554	476	
2	0	0	0	0	553	477	
3	0	0	0	0	546	484	
4	0	0	0	0	533	494	
5	0	0	0	0	521	508	
6	0	0	0	0	512	518	
7	0	0	0	0	502	529	
8	0	0	0	0	490	536	
9	0	0	0	0	480	544	
10	0	0	0	0	475	541	
11	0	0	0	0	471	539	
12	0	0	0	0	470	533	
13	0	0	0	0	476	524	
14	0	0	0	0	489	512	
15	0	0	0	0	501	504	
0	0	0	0	0	510	500	
1	0	0	0	0	522	490	
2	0	0	0	0	530	483	
3	0	0	0	0	542	477	
4	0	0	0	0	551	477	
5	0	0	0	0	547	478	
6	0	0	0	0	548	477	
7	0	0	0	0	543	487	
8	0	0	0	0	532	498	
9	0	0	0	0	523	510	
10	0	0	0	0	511	518	
11	0	0	0	0	498	524	
12	0	0	0	0	488	536	
13	0	0	0	0	480	539	
14	0	0	0	0	477	541	
15	0	0	0	0	473	539	
0	0	0	0	0	470	531	
1	0	0	0	0	478	524	
2	0	0	0	0	487	515	
3	0	0	0	0	497	506	
4	0	0	0	0	510	499	
5	0	0	0	0	522	488	
6	0	0	0	0	539	480	
7	0	0	0	0	550	475	
8	0	0	0	0	551	472	
9	0	0	0	0	554	476	
10	0	0	0	0	556	477	
11	0	0	0	0	549	486	
12	0	0	0	0	537	498	
13	0	0	0	0	526	507	
14	0	0	0	0	513	517	
15	0	0	0	0	500	527	
0	0	0	0	0	487	539	
1	0	0	0	0	477	542	
2	0	0	0	0	472	542	
3	0	0	0	0	472	543	
4	0	0	0	0	471	536	
5	0	0	0	0	476	529	
6	0	0	0	0	487	517	
7	0	0	0	0	498	504	
8	0	0	0	0	509	491	
9	0	0	0	0	520	484	
10	0	0	0	0	537	483	
11	0	0	0	0	550	477	
12	0	0	0	0	553	476	
13	0	0	0	0	555	477	
14	0	0	0	0	554	479	
15	0	0	0	0	547	487	
0	0	0	0	0	534	495	
1	0	0	0	0	521	504	
2	0	0	0	0	511	516	
3	0	0	0	0	501	528	
4	0	0	0	0	486	536	
5	0	0	0	0	477	538	
6	0	0	0	0	471	539	
7	0	0	0	0	471	540	
8	0	0	0	0	476	536	
9	0	0	0	0	480	530	
10	0	0	0	0	488	516	
11	0	0	0	0	500	505	
12	0	0	0	0	512	495	
13	0	0	0	0	525	489	
14	0	0	0	0	537	480	
15	0	0	0	0	540	477	
0	0	0	0	0	542	473	
1	0	0	0	0	547	472	
2	0	0	0	0	552	477	
3	0	0	0	0	548	488	
4	0	0	0	0	540	500	
5	0	0	0	0	532	507	
6	0	0	0	0	519	516	
7	0	0	0	0	504	531	
8	0	0	0	0	489	539	
9	0	0	0	0	480	539	
10	0	0	0	0	471	538	
11	0	0	0	0	466	540	
12	0	0	0	0	471	536	
13	0	0	0	0	480	528	
14	0	0	0	0	489	518	
15	0	0	0	0	490	511	
0	0	0	0	0	492	500	
1	0	0	0	0	504	486	
2	0	0	0	0	530	477	
3	0	0	0	0	550	472	
4	0	0	0	0	561	473	
5	0	0	0	0	558	473	
6	0	0	0	0	557	479	
7	0	0	0	0	547	489	
8	0	0	0	0	534	501	
9	0	0	0	0	517	499	
10	0	0	0	0	512	517	
11	0	0	0	0	503	531	
12	0	0	0	0	491	535	
13	0	0	0	0	484	538	
14	0	0	0	0	476	539	
15	0	0	0	0	473	541	
0	0	0	0	0	472	540	
1	0	0	0	0	476	530	
2	0	0	0	0	487	516	
3	0	0	0	0	497	508	
4	0	0	0	0	510	492	
5	0	0	0	0	525	481	
6	0	0	0	0	541	477	
7	0	0	0	0	549	475	
8	0	0	0	0	556	472	
9	0	0	0	0	556	476	
10	0	0	0	0	556	480	
11	0	0	0	0	548	488	
12	0	0	0	0	533	508	
13	0	0	0	0	517	511	
14	0	0	0	0	507	512	
15	0	0	0	0	493	523	
0	0	0	0	0	482	530	
1	0	0	0	0	474	542	
2	0	0	0	0	470	545	
3	0	0	0	0	467	543	
4	0	0	0	0	472	536	
5	0	0	0	0	479	527	
6	0	0	0	0	490	516	
7	0	0	0	0	500	509	
8	0	0	0	0	511	500	
9	0	0	0	0	526	486	
10	0	0	0	0	538	477	
11	0	0	0	0	547	469	
12	0	0	0	0	553	467	
13	0	0	0	0	556	475	
14	0	0	0	0	556	480	
15	0	0	0	0	547	488	
0	0	0	0	0	533	498	
1	0	0	0	0	524	513	
2	0	0	0	0	514	527	
3	0	0	0	0	504	532	
4	0	0	0	0	481	524	
5	0	0	0	0	473	524	
6	0	0	0	0	472	534	
7	0	0	0	0	469	539	
8	0	0	0	0	475	537	
9	0	0	0	0	480	527	
10	0	0	0	0	492	525	
11	0	0	0	0	505	521	
12	0	0	0	0	518	507	
13	0	0	0	0	527	490	
14	0	0	0	0	536	480	
15	0	0	0	0	550	472	
0	0	0	0	0	551	466	
1	0	0	0	0	551	461	
2	0	0	0	0	551	474	
3	0	0	0	0	547	489	
4	0	0	0	0	535	499	
5	0	0	0	0	526	504	
6	0	0	0	0	519	518	
7	0	0	0	0	514	532	
8	0	0	0	0	498	541	
9	0	0	0	0	478	543	
10	0	0	0	0	468	545	
11	0	0	0	0	467	548	
12	0	0	0	0	461	539	
13	0	0	0	0	472	526	
14	0	0	0	0	485	511	
15	0	0	0	0	483	503	
0	0	0	0	0	481	493	
1	0	0	0	0	493	484	
2	0	0	0	0	513	477	
3	0	0	0	0	530	474	
4	0	0	0	0	541	475	
5	0	0	0	0	548	477	
6	0	0	0	0	556	479	
7	0	0	0	0	552	484	
8	0	0	0	0	547	497	
9	0	0	0	0	540	510	
10	0	0	0	0	528	516	
11	0	0	0	0	512	526	
12	0	0	0	0	495	536	
13	0	0	0	0	480	542	
14	0	0	0	0	476	541	
15	0	0	0	0	475	544	
0	0	0	0	0	473	538	
1	0	0	0	0	479	528	
2	0	0	0	0	489	517	
3	0	0	0	0	497	510	
4	0	0	0	0	509	497	
5	0	0	0	0	524	483	
6	0	0	0	0	541	472	
7	0	0	0	0	549	470	
8	0	0	0	0	557	478	
9	0	0	0	0	555	481	
10	0	0	0	0	551	484	
11	0	0	0	0	544	483	
12	0	0	0	0	535	489	
13	0	0	0	0	526	501	
14	0	0	0	0	513	502	
15	0	0	0	0	499	528	
0	0	0	0	0	486	551	
1	0	0	0	0	478	555	
2	0	0	0	0	471	549	
3	0	0	0	0	467	542	
4	0	0	0	0	464	532	
5	0	0	0	0	472	522	
6	0	0	0	0	486	515	
7	0	0	0	0	501	504	
8	0	0	0	0	513	497	
9	0	0	0	0	526	491	
10	0	0	0	0	541	481	
11	0	0	0	0	549	477	
12	0	0	0	0	557	480	
13	0	0	0	0	555	471	
14	0	0	0	0	548	463	
15	0	0	0	0	539	463	
0	0	0	0	0	533	483	
1	0	0	0	0	528	510	
2	0	0	0	0	521	526	
3	0	0	0	0	504	539	
4	0	0	0	0	487	543	
5	0	0	0	0	476	546	
6	0	0	0	0	472	545	
7	0	0	0	0	465	540	
8	0	0	0	0	469	534	
9	0	0	0	0	472	525	
10	0	0	0	0	487	509	
11	0	0	0	0	494	504	
12	0	0	0	0	511	510	
13	0	0	0	0	530	497	
14	0	0	0	0	541	482	
15	0	0	0	0	548	469	
0	0	0	0	0	556	468	
1	0	0	0	0	552	471	
2	0	0	0	0	555	480	
3	0	0	0	0	549	487	
4	0	0	0	0	533	495	
5	0	0	0	0	524	504	
6	0	0	0	0	519	511	
7	0	0	0	0	510	526	
8	0	0	0	0	494	542	
9	0	0	0	0	487	550	
10	0	0	0	0	483	544	
11	0	0	0	0	475	534	
12	0	0	0	0	467	521	
13	0	0	0	0	470	531	
14	0	0	0	0	477	519	
15	0	0	0	0	482	506	
0	0	0	0	0	499	499	
1	0	0	0	0	506	483	
2	0	0	0	0	517	477	
3	0	0	0	0	530	481	
4	0	0	0	0	541	478	
5	0	0	0	0	550	476	
6	0	0	0	0	552	481	
7	0	0	0	0	555	491	
8	0	0	0	0	546	505	
9	0	0	0	0	530	510	
10	0	0	0	0	511	509	
11	0	0	0	0	505	521	
12	0	0	0	0	497	531	
13	0	0	0	0	488	534	
14	0	0	0	0	479	524	
15	0	0	0	0	480	544	
0	0	0	0	0	476	548	
1	0	0	0	0	478	536	
2	0	0	0	0	482	519	
3	0	0	0	0	488	511	
4	0	0	0	0	497	499	
5	0	0	0	0	508	489	
6	0	0	0	0	520	478	
7	0	0	0	0	533	472	
8	0	0	0	0	541	472	
9	0	0	0	0	550	476	
10	0	0	0	0	555	476	
11	0	0	0	0	554	474	
12	0	0	0	0	544	486	
13	0	0	0	0	539	510	
14	0	0	0	0	524	526	
15	0	0	0	0	508	534	
0	0	0	0	0	491	534	
1	0	0	0	0	481	539	
2	0	0	0	0	474	543	
3	0	0	0	0	469	541	
4	0	0	0	0	470	541	
5	0	0	0	0	477	541	
6	0	0	0	0	486	524	
7	0	0	0	0	495	507	
8	0	0	0	0	510	498	
9	0	0	0	0	524	486	
10	0	0	0	0	537	456	
11	0	0	0	0	546	451	
12	0	0	0	0	559	470	
13	0	0	0	0	558	477	
14	0	0	0	0	560	486	
15	0	0	0	0	552	493	
0	0	0	0	0	534	504	
1	0	0	0	0	521	521	
2	0	0	0	0	508	518	
3	0	0	0	0	493	510	
4	0	0	0	0	478	510	
5	0	0	0	0	473	543	
6	0	0	0	0	475	558	
7	0	0	0	0	475	556	
8	0	0	0	0	476	547	
9	0	0	0	0	476	522	
10	0	0	0	0	488	503	
11	0	0	0	0	496	492	
12	0	0	0	0	508	484	
13	0	0	0	0	528	487	
14	0	0	0	0	540	492	
15	0	0	0	0	547	483	
0	0	0	0	0	551	474	
1	0	0	0	0	553	473	
2	0	0	0	0	558	481	
3	0	0	0	0	554	492	
4	0	0	0	0	540	503	
5	0	0	0	0	527	508	
6	0	0	0	0	515	519	
7	0	0	0	0	498	527	
8	0	0	0	0	483	536	
9	0	0	0	0	475	540	
10	0	0	0	0	466	537	
11	0	0	0	0	466	539	
12	0	0	0	0	468	538	
13	0	0	0	0	476	528	
14	0	0	0	0	488	518	
15	0	0	0	0	502	510	
0	0	0	0	0	511	496	
1	0	0	0	0	524	481	
2	0	0	0	0	540	477	
3	0	0	0	0	556	474	
4	0	0	0	0	558	477	
5	0	0	0	0	557	486	
6	0	0	0	0	554	487	
7	0	0	0	0	537	475	
8	0	0	0	0	519	468	
9	0	0	0	0	519	500	
10	0	0	0	0	507	515	
11	0	0	0	0	489	529	
12	0	0	0	0	476	543	
13	0	0	0	0	467	551	
14	0	0	0	0	457	548	
15	0	0	0	0	454	539	
0	0	0	0	0	458	539	
1	0	0	0	0	474	527	
2	0	0	0	0	492	513	
3	0	0	0	0	508	506	
4	0	0	0	0	521	499	
5	0	0	0	0	534	489	
6	0	0	0	0	549	481	
7	0	0	0	0	555	475	
8	0	0	0	0	561	476	
9	0	0	0	0	558	477	
10	0	0	0	0	553	477	
11	0	0	0	0	548	484	
12	0	0	0	0	536	501	
13	0	0	0	0	527	512	
14	0	0	0	0	519	520	
15	0	0	0	0	502	528	
0	0	0	0	0	483	526	
1	0	0	0	0	472	535	
2	0	0	0	0	470	543	
3	0	0	0	0	472	551	
4	0	0	0	0	474	548	
5	0	0	0	0	478	525	
6	0	0	0	0	486	511	
7	0	0	0	0	507	511	
8	0	0	0	0	510	487	
9	0	0	0	0	520	467	
10	0	0	0	0	537	474	
11	0	0	0	0	546	469	
12	0	0	0	0	550	470	
13	0	0	0	0	555	480	
14	0	0	0	0	557	479	
15	0	0	0	0	547	490	
0	0	0	0	0	534	499	
1	0	0	0	0	521	497	
2	0	0	0	0	511	516	
3	0	0	0	0	500	533	
4	0	0	0	0	487	539	
5	0	0	0	0	478	537	
6	0	0	0	0	473	549	
7	0	0	0	0	469	543	
8	0	0	0	0	470	528	
9	0	0	0	0	473	535	
10	0	0	0	0	480	515	
11	0	0	0	0	494	504	
12	0	0	0	0	509	505	
13	0	0	0	0	525	498	
14	0	0	0	0	540	486	
15	0	0	0	0	551	476	
0	0	0	0	0	559	475	
1	0	0	0	0	561	470	
2	0	0	0	0	557	468	
3	0	0	0	0	549	483	
4	0	0	0	0	536	489	
5	0	0	0	0	526	492	
6	0	0	0	0	515	515	
7	0	0	0	0	506	529	
8	0	0	0	0	488	541	
9	0	0	0	0	478	546	
10	0	0	0	0	472	548	
11	0	0	0	0	474	544	
12	0	0	0	0	467	536	
13	0	0	0	0	467	525	
14	0	0	0	0	471	513	
15	0	0	0	0	487	506	
0	0	0	0	0	504	498	
1	0	0	0	0	514	491	
2	0	0	0	0	522	484	
3	0	0	0	0	533	477	
4	0	0	0	0	548	474	
5	0	0	0	0	559	474	
6	0	0	0	0	563	472	
7	0	0	0	0	562	487	
8	0	0	0	0	548	498	
9	0	0	0	0	531	508	
10	0	0	0	0	515	515	
11	0	0	0	0	495	529	
12	0	0	0	0	480	536	
13	0	0	0	0	475	540	
14	0	0	0	0	473	544	
15	0	0	0	0	472	544	
0	0	0	0	0	464	537	
1	0	0	0	0	468	529	
2	0	0	0	0	476	519	
3	0	0	0	0	487	509	
4	0	0	0	0	500	492	
5	0	0	0	0	523	478	
6	0	0	0	0	540	473	
7	0	0	0	0	549	475	
8	0	0	0	0	551	475	
9	0	0	0	0	556	475	
10	0	0	0	0	556	479	
11	0	0	0	0	553	486	
12	0	0	0	0	543	499	
13	0	0	0	0	533	507	
14	0	0	0	0	519	519	
15	0	0	0	0	509	531	
0	0	0	0	0	489	539	
1	0	0	0	0	479	545	
2	0	0	0	0	468	539	
3	0	0	0	0	469	542	
4	0	0	0	0	470	555	
5	0	0	0	0	480	558	
6	0	0	0	0	485	519	
7	0	0	0	0	500	485	
8	0	0	0	0	516	467	
9	0	0	0	0	532	460	
10	0	0	0	0	546	470	
11	0	0	0	0	550	468	
12	0	0	0	0	552	489	
13	0	0	0	0	552	486	
14	0	0	0	0	547	480	
15	0	0	0	0	544	484	
0	0	0	0	0	534	488	
1	0	0	0	0	527	503	
2	0	0	0	0	514	513	
3	0	0	0	0	500	517	
4	0	0	0	0	480	532	
5	0	0	0	0	474	548	
6	0	0	0	0	472	547	
7	0	0	0	0	466	544	
8	0	0	0	0	465	537	
9	0	0	0	0	475	534	
10	0	0	0	0	490	523	
11	0	0	0	0	504	522	
12	0	0	0	0	512	518	
13	0	0	0	0	523	515	
14	0	0	0	0	538	492	
15	0	0	0	0	539	427	
0	0	0	0	0	548	446	
1	0	0	0	0	550	440	
2	0	0	0	0	555	460	
3	0	0	0	0	554	492	
4	0	0	0	0	545	513	
5	0	0	0	0	529	519	
6	0	0	0	0	516	527	
7	0	0	0	0	502	537	
8	0	0	0	0	486	544	
9	0	0	0	0	471	537	
10	0	0	0	0	466	542	
11	0	0	0	0	469	545	
12	0	0	0	0	469	540	
13	0	0	0	0	477	530	
14	0	0	0	0	487	512	
15	0	0	0	0	501	503	
0	0	0	0	0	511	496	
1	0	0	0	0	524	486	
2	0	0	0	0	536	482	
3	0	0	0	0	542	470	
4	0	0	0	0	547	466	
5	0	0	0	0	547	472	
6	0	0	0	0	550	472	
7	0	0	0	0	545	489	
8	0	0	0	0	534	506	
9	0	0	0	0	528	518	
10	0	0	0	0	513	515	
11	0	0	0	0	499	517	
12	0	0	0	0	486	553	
13	0	0	0	0	476	557	
14	0	0	0	0	467	540	
15	0	0	0	0	466	534	
0	0	0	0	0	472	541	
1	0	0	0	0	479	507	
2	0	0	0	0	484	472	
3	0	0	0	0	506	506	
4	0	0	0	0	520	517	
5	0	0	0	0	528	509	
6	0	0	0	0	534	486	
7	0	0	0	0	544	457	
8	0	0	0	0	552	453	
9	0	0	0	0	556	470	
10	0	0	0	0	557	486	
11	0	0	0	0	550	492	
12	0	0	0	0	534	513	
13	0	0	0	0	520	503	
14	0	0	0	0	515	514	
15	0	0	0	0	505	544	
0	0	0	0	0	493	564	
1	0	0	0	0	480	559	
2	0	0	0	0	463	518	
3	0	0	0	0	462	520	
4	0	0	0	0	467	515	
5	0	0	0	0	481	515	
6	0	0	0	0	492	520	
7	0	0	0	0	500	509	
8	0	0	0	0	510	505	
9	0	0	0	0	519	482	
10	0	0	0	0	534	478	
11	0	0	0	0	548	485	
12	0	0	0	0	555	482	
13	0	0	0	0	550	467	
14	0	0	0	0	551	471	
15	0	0	0	0	547	489	
0	0	0	0	0	538	514	
1	0	0	0	0	529	517	
2	0	0	0	0	511	509	
3	0	0	0	0	494	516	
4	0	0	0	0	482	539	
5	0	0	0	0	478	553	
6	0	0	0	0	474	550	
7	0	0	0	0	470	544	
8	0	0	0	0	471	543	
9	0	0	0	0	476	515	
10	0	0	0	0	489	514	
11	0	0	0	0	501	505	
12	0	0	0	0	511	487	
13	0	0	0	0	523	483	
14	0	0	0	0	535	478	
15	0	0	0	0	547	483	
0	0	0	0	0	554	492	
1	0	0	0	0	556	500	
2	0	0	0	0	551	492	
3	0	0	0	0	542	486	
4	0	0	0	0	528	468	
5	0	0	0	0	524	466	
6	0	0	0	0	520	498	
7	0	0	0	0	498	529	
8	0	0	0	0	480	547	
9	0	0	0	0	468	537	
10	0	0	0	0	470	535	
11	0	0	0	0	468	524	
12	0	0	0	0	477	544	
13	0	0	0	0	481	545	
14	0	0	0	0	495	522	
15	0	0	0	0	503	512	
0	0	0	0	0	511	505	
1	0	0	0	0	525	492	
2	0	0	0	0	538	475	
3	0	0	0	0	543	473	
4	0	0	0	0	551	473	
5	0	0	0	0	550	476	
6	0	0	0	0	548	472	
7	0	0	0	0	545	486	
8	0	0	0	0	543	537	
9	0	0	0	0	536	552	
10	0	0	0	0	509	498	
11	0	0	0	0	477	461	
12	0	0	0	0	469	508	
13	0	0	0	0	479	555	
14	0	0	0	0	480	560	
15	0	0	0	0	475	533	
0	0	0	0	0	476	539	
1	0	0	0	0	476	507	
2	0	0	0	0	486	515	
3	0	0	0	0	505	540	
4	0	0	0	0	517	510	
5	0	0	0	0	519	487	
6	0	0	0	0	529	486	
7	0	0	0	0	535	488	
8	0	0	0	0	546	487	
9	0	0	0	0	565	476	
10	0	0	0	0	558	438	
11	0	0	0	0	543	454	
12	0	0	0	0	541	507	
13	0	0	0	0	531	539	
14	0	0	0	0	518	526	
15	0	0	0	0	489	490	
0	0	0	0	0	486	508	
1	0	0	0	0	487	540	
2	0	0	0	0	476	567	
3	0	0	0	0	461	536	
4	0	0	0	0	464	537	
5	0	0	0	0	482	545	
6	0	0	0	0	497	538	
7	0	0	0	0	499	475	
8	0	0	0	0	508	460	
9	0	0	0	0	534	530	
10	0	0	0	0	545	528	
11	0	0	0	0	532	464	
12	0	0	0	0	525	436	
13	0	0	0	0	554	492	
14	0	0	0	0	565	500	
15	0	0	0	0	556	503	
0	0	0	0	0	533	490	
1	0	0	0	0	509	455	
2	0	0	0	0	508	503	
3	0	0	0	0	500	545	
4	0	0	0	0	487	522	
5	0	0	0	0	466	487	
6	0	0	0	0	464	522	
7	0	0	0	0	478	565	
8	0	0	0	0	479	534	
9	0	0	0	0	484	504	
10	0	0	0	0	494	527	
11	0	0	0	0	505	544	
12	0	0	0	0	511	545	
13	0	0	0	0	524	527	
14	0	0	0	0	536	481	
15	0	0	0	0	540	425	
0	0	0	0	0	555	473	
1	0	0	0	0	558	481	
2	0	0	0	0	551	480	
3	0	0	0	0	546	481	
4	0	0	0	0	529	448	
5	0	0	0	0	523	485	
6	0	0	0	0	519	523	
7	0	0	0	0	500	545	
8	0	0	0	0	480	572	
9	0	0	0	0	472	569	
10	0	0	0	0	476	562	
11	0	0	0	0	468	515	
12	0	0	0	0	467	528	
13	0	0	0	0	485	543	
14	0	0	0	0	497	512	
15	0	0	0	0	495	472	
0	0	0	0	0	506	529	
1	0	0	0	0	528	584	
2	0	0	0	0	543	591	
3	0	0	0	0	537	504	
4	0	0	0	0	533	382	
5	0	0	0	0	529	250	
6	0	0	0	0	555	384	
7	0	0	0	0	565	479	
8	0	0	0	0	550	500	
9	0	0	0	0	545	550	
10	0	0	0	0	524	551	
11	0	0	0	0	503	586	
12	0	0	0	0	485	572	
13	0	0	0	0	463	529	
14	0	0	0	0	462	557	
15	0	0	0	0	470	573	
0	0	0	0	0	470	563	
1	0	0	0	0	475	527	
2	0	0	0	0	482	457	
3	0	0	0	0	505	471	
4	0	0	0	0	512	466	
5	0	0	0	0	518	485	
6	0	0	0	0	532	481	
7	0	0	0	0	553	517	
8	0	0	0	0	558	504	
9	0	0	0	0	554	474	
10	0	0	0	0	549	433	
11	0	0	0	0	540	454	
12	0	0	0	0	529	479	
13	0	0	0	0	524	505	
14	0	0	0	0	514	544	
15	0	0	0	0	496	577	
0	0	0	0	0	480	554	
1	0	0	0	0	460	519	
2	0	0	0	0	462	537	
3	0	0	0	0	467	525	
4	0	0	0	0	483	468	
5	0	0	0	0	492	485	
6	0	0	0	0	501	524	
7	0	0	0	0	509	538	
8	0	0	0	0	512	525	
9	0	0	0	0	519	499	
10	0	0	0	0	534	508	
11	0	0	0	0	550	504	
12	0	0	0	0	562	483	
13	0	0	0	0	558	432	
14	0	0	0	0	550	492	
15	0	0	0	0	542	507	
0	0	0	0	0	526	489	
1	0	0	0	0	526	492	
2	0	0	0	0	524	526	
3	0	0	0	0	500	549	
4	0	0	0	0	477	561	
5	0	0	0	0	466	585	
6	0	0	0	0	467	564	
7	0	0	0	0	463	504	
8	0	0	0	0	461	465	
9	0	0	0	0	474	497	
10	0	0	0	0	503	529	
11	0	0	0	0	511	499	
12	0	0	0	0	520	508	
13	0	0	0	0	526	468	
14	0	0	0	0	535	450	
15	0	0	0	0	549	502	
0	0	0	0	0	550	516	
1	0	0	0	0	547	536	
2	0	0	0	0	547	550	
3	0	0	0	0	537	500	
4	0	0	0	0	538	432	
5	0	0	0	0	525	429	
6	0	0	0	0	513	458	
7	0	0	0	0	496	471	
8	0	0	0	0	485	502	
9	0	0	0	0	483	560	
10	0	0	0	0	482	580	
11	0	0	0	0	478	588	
12	0	0	0	0	469	578	
13	0	0	0	0	468	543	
14	0	0	0	0	489	501	
15	0	0	0	0	496	455	
0	0	0	0	0	513	509	
1	0	0	0	0	527	503	
2	0	0	0	0	534	471	
3	0	0	0	0	536	466	
4	0	0	0	0	548	478	
5	0	0	0	0	554	469	
6	0	0	0	0	554	480	
7	0	0	0	0	559	505	
8	0	0	0	0	544	531	
9	0	0	0	0	526	526	
10	0	0	0	0	510	526	
11	0	0	0	0	493	540	
12	0	0	0	0	478	512	
13	0	0	0	0	463	474	
14	0	0	0	0	461	486	
15	0	0	0	0	471	536	
0	0	0	0	0	479	564	
1	0	0	0	0	486	549	
2	0	0	0	0	492	515	
3	0	0	0	0	501	517	
4	0	0	0	0	511	519	
5	0	0	0	0	528	518	
6	0	0	0	0	541	495	
7	0	0	0	0	543	455	
8	0	0	0	0	539	438	
9	0	0	0	0	554	464	
10	0	0	0	0	545	458	
11	0	0	0	0	545	479	
12	0	0	0	0	541	510	
13	0	0	0	0	536	516	
14	0	0	0	0	516	524	
15	0	0	0	0	496	534	
0	0	0	0	0	484	545	
1	0	0	0	0	477	545	
2	0	0	0	0	471	544	
3	0	0	0	0	473	542	
4	0	0	0	0	470	539	
5	0	0	0	0	476	528	
6	0	0	0	0	488	518	
7	0	0	0	0	500	510	
8	0	0	0	0	512	501	
9	0	0	0	0	526	490	
10	0	0	0	0	537	471	
11	0	0	0	0	545	466	
12	0	0	0	0	545	480	
13	0	0	0	0	552	487	
14	0	0	0	0	551	478	
15	0	0	0	0	547	474	
0	0	0	0	0	536	472	
1	0	0	0	0	529	503	
2	0	0	0	0	517	526	
3	0	0	0	0	500	537	
4	0	0	0	0	484	545	
5	0	0	0	0	480	540	
6	0	0	0	0	481	543	
7	0	0	0	0	477	540	
8	0	0	0	0	478	538	
9	0	0	0	0	483	528	
10	0	0	0	0	492	517	
11	0	0	0	0	496	484	
12	0	0	0	0	508	485	
13	0	0	0	0	524	484	
14	0	0	0	0	536	482	
15	0	0	0	0	547	476	
0	0	0	0	0	550	477	
1	0	0	0	0	555	482	
2	0	0	0	0	555	478	
3	0	0	0	0	550	486	
4	0	0	0	0	532	497	
5	0	0	0	0	514	508	
6	0	0	0	0	496	516	
7	0	0	0	0	477	531	
8	0	0	0	0	469	544	
9	0	0	0	0	463	547	
10	0	0	0	0	463	543	
11	0	0	0	0	468	543	
12	0	0	0	0	476	533	
13	0	0	0	0	488	525	
14	0	0	0	0	503	514	
15	0	0	0	0	511	505	
0	0	0	0	0	519	496	
1	0	0	0	0	527	483	
2	0	0	0	0	535	480	
3	0	0	0	0	548	474	
4	0	0	0	0	551	476	
5	0	0	0	0	554	480	
6	0	0	0	0	549	478	
7	0	0	0	0	546	485	
8	0	0	0	0	534	492	
9	0	0	0	0	522	505	
10	0	0	0	0	505	516	
11	0	0	0	0	495	531	
12	0	0	0	0	482	540	
13	0	0	0	0	474	541	
14	0	0	0	0	474	537	
15	0	0	0	0	475	539	
0	0	0	0	0	478	537	
1	0	0	0	0	480	526	
2	0	0	0	0	488	513	
3	0	0	0	0	501	504	
4	0	0	0	0	508	496	
5	0	0	0	0	523	487	
6	0	0	0	0	537	476	
7	0	0	0	0	548	476	
8	0	0	0	0	548	475	
9	0	0	0	0	541	476	
10	0	0	0	0	543	481	
11	0	0	0	0	542	490	
12	0	0	0	0	534	503	
13	0	0	0	0	527	510	
14	0	0	0	0	517	516	
15	0	0	0	0	504	528	
0	0	0	0	0	486	535	
1	0	0	0	0	479	538	
2	0	0	0	0	478	541	
3	0	0	0	0	476	540	
4	0	0	0	0	470	539	
5	0	0	0	0	475	528	
6	0	0	0	0	487	514	
7	0	0	0	0	507	504	
8	0	0	0	0	523	491	
9	0	0	0	0	534	482	
10	0	0	0	0	543	472	
11	0	0	0	0	553	474	
12	0	0	0	0	551	473	
13	0	0	0	0	551	476	
14	0	0	0	0	550	480	
15	0	0	0	0	544	489	
0	0	0	0	0	531	503	
1	0	0	0	0	521	511	
2	0	0	0	0	511	519	
3	0	0	0	0	500	526	
4	0	0	0	0	482	533	
5	0	0	0	0	467	541	
6	0	0	0	0	452	540	
7	0	0	0	0	452	541	
8	0	0	0	0	454	537	
9	0	0	0	0	466	532	
10	0	0	0	0	490	521	
11	0	0	0	0	503	508	
12	0	0	0	0	519	494	
13	0	0	0	0	530	482	
14	0	0	0	0	541	473	
15	0	0	0	0	550	470	
0	0	0	0	0	556	472	
1	0	0	0	0	560	479	
2	0	0	0	0	556	482	
3	0	0	0	0	551	486	
4	0	0	0	0	541	502	
5	0	0	0	0	529	509	
6	0	0	0	0	519	520	
7	0	0	0	0	503	532	
8	0	0	0	0	490	535	
9	0	0	0	0	480	539	
10	0	0	0	0	476	540	
11	0	0	0	0	477	536	
12	0	0	0	0	479	534	
13	0	0	0	0	482	523	
14	0	0	0	0	493	513	
15	0	0	0	0	501	508	
0	0	0	0	0	510	501	
1	0	0	0	0	519	488	
2	0	0	0	0	531	480	
3	0	0	0	0	542	473	
4	0	0	0	0	554	471	
5	0	0	0	0	551	469	
6	0	0	0	0	544	472	
7	0	0	0	0	536	484	
8	0	0	0	0	534	497	
9	0	0	0	0	525	514	
10	0	0	0	0	514	526	
11	0	0	0	0	499	537	
12	0	0	0	0	481	544	
13	0	0	0	0	477	545	
14	0	0	0	0	469	542	
15	0	0	0	0	469	540	
0	0	0	0	0	472	536	
1	0	0	0	0	476	523	
2	0	0	0	0	480	508	
3	0	0	0	0	488	500	
4	0	0	0	0	504	494	
5	0	0	0	0	520	487	
6	0	0	0	0	536	479	
7	0	0	0	0	546	477	
8	0	0	0	0	550	477	
9	0	0	0	0	556	478	
10	0	0	0	0	558	478	
11	0	0	0	0	557	488	
12	0	0	0	0	545	500	
13	0	0	0	0	536	508	
14	0	0	0	0	519	517	
15	0	0	0	0	498	527	
0	0	0	0	0	477	536	
1	0	0	0	0	467	537	
2	0	0	0	0	465	538	
3	0	0	0	0	469	543	
4	0	0	0	0	476	538	
5	0	0	0	0	484	526	
6	0	0	0	0	495	515	
7	0	0	0	0	502	504	
8	0	0	0	0	512	495	
9	0	0	0	0	526	484	
10	0	0	0	0	538	476	
11	0	0	0	0	550	470	
12	0	0	0	0	560	474	
13	0	0	0	0	564	475	
14	0	0	0	0	560	474	
15	0	0	0	0	556	487	
0	0	0	0	0	544	504	
1	0	0	0	0	524	514	
2	0	0	0	0	505	523	
3	0	0	0	0	488	533	
4	0	0	0	0	475	537	
5	0	0	0	0	466	542	
6	0	0	0	0	464	541	
7	0	0	0	0	454	536	
8	0	0	0	0	452	531	
9	0	0	0	0	460	527	
10	0	0	0	0	476	519	
11	0	0	0	0	496	508	
12	0	0	0	0	520	499	
13	0	0	0	0	535	487	
14	0	0	0	0	544	480	
15	0	0	0	0	551	473	
0	0	0	0	0	551	470	
1	0	0	0	0	552	474	
2	0	0	0	0	548	477	
3	0	0	0	0	542	483	
4	0	0	0	0	538	497	
5	0	0	0	0	543	505	
6	0	0	0	0	530	512	
7	0	0	0	0	511	525	
8	0	0	0	0	491	541	
9	0	0	0	0	473	547	
10	0	0	0	0	465	547	
11	0	0	0	0	461	544	
12	0	0	0	0	461	536	
13	0	0	0	0	472	526	
14	0	0	0	0	482	511	
15	0	0	0	0	492	503	
0	0	0	0	0	507	496	
1	0	0	0	0	521	487	
2	0	0	0	0	532	475	
3	0	0	0	0	553	470	
4	0	0	0	0	563	470	
5	0	0	0	0	561	475	
6	0	0	0	0	559	480	
7	0	0	0	0	550	490	
8	0	0	0	0	532	503	
9	0	0	0	0	515	510	
10	0	0	0	0	496	518	
11	0	0	0	0	483	527	
12	0	0	0	0	475	538	
13	0	0	0	0	472	539	
14	0	0	0	0	478	539	
15	0	0	0	0	482	542	
0	0	0	0	0	478	536	
1	0	0	0	0	481	525	
2	0	0	0	0	491	515	
3	0	0	0	0	499	507	
4	0	0	0	0	505	497	
5	0	0	0	0	525	487	
6	0	0	0	0	548	479	
7	0	0	0	0	556	472	
8	0	0	0	0	557	471	
9	0	0	0	0	562	476	
10	0	0	0	0	575	478	
11	0	0	0	0	566	482	
12	0	0	0	0	543	496	
13	0	0	0	0	524	508	
14	0	0	0	0	508	519	
15	0	0	0	0	483	530	
0	0	0	0	0	464	537	
1	0	0	0	0	463	541	
2	0	0	0	0	456	541	
3	0	0	0	0	455	544	
4	0	0	0	0	459	540	
5	0	0	0	0	476	525	
6	0	0	0	0	490	513	
7	0	0	0	0	509	509	
8	0	0	0	0	521	500	
9	0	0	0	0	534	487	
10	0	0	0	0	547	478	
11	0	0	0	0	552	473	
12	0	0	0	0	549	469	
13	0	0	0	0	547	470	
14	0	0	0	0	544	475	
15	0	0	0	0	537	482	
0	0	0	0	0	529	495	
1	0	0	0	0	517	510	
2	0	0	0	0	509	521	
3	0	0	0	0	488	534	
4	0	0	0	0	472	536	
5	0	0	0	0	464	543	
6	0	0	0	0	466	543	
7	0	0	0	0	466	540	
8	0	0	0	0	476	535	
9	0	0	0	0	499	526	
10	0	0	0	0	508	511	
11	0	0	0	0	519	504	
12	0	0	0	0	520	495	
13	0	0	0	0	532	488	
14	0	0	0	0	552	484	
15	0	0	0	0	557	480	
0	0	0	0	0	560	476	
1	0	0	0	0	559	473	
2	0	0	0	0	554	477	
3	0	0	0	0	552	483	
4	0	0	0	0	537	492	
5	0	0	0	0	527	504	
6	0	0	0	0	511	517	
7	0	0	0	0	491	530	
8	0	0	0	0	474	537	
9	0	0	0	0	461	543	
10	0	0	0	0	456	545	
11	0	0	0	0	460	540	
12	0	0	0	0	459	534	
13	0	0	0	0	473	524	
14	0	0	0	0	486	515	
15	0	0	0	0	505	508	
0	0	0	0	0	518	500	
1	0	0	0	0	529	488	
2	0	0	0	0	529	477	
3	0	0	0	0	541	470	
4	0	0	0	0	543	473	
5	0	0	0	0	547	477	
6	0	0	0	0	555	484	
7	0	0	0	0	553	487	
8	0	0	0	0	540	493	
9	0	0	0	0	530	504	
10	0	0	0	0	527	518	
11	0	0	0	0	515	531	
12	0	0	0	0	494	540	
13	0	0	0	0	475	543	
14	0	0	0	0	469	544	
15	0	0	0	0	460	539	
0	0	0	0	0	460	533	
1	0	0	0	0	472	529	
2	0	0	0	0	488	515	
