# OpenSignals Text File Format. Version 1
# {"88:6B:0F:F0:D6:9F": {"position": 0, "device": "bitalino_rev", "device name": "88:6B:0F:F0:D6:9F", "device connection": "BTH88:6B:0F:F0:D6:9F", "sampling rate": 1000, "resolution": [4, 1, 1, 1, 1, 10, 10], "firmware version": 1282, "comments": "", "keywords": "", "mode": 0, "sync interval": 2, "date": "2025-10-22", "time": "14:0:15.428", "channels": [3, 4], "sensor": ["EMGBITREV", "EMGBITREV"], "label": ["A3", "A4"], "column": ["nSeq", "I1", "I2", "O1", "O2", "A3", "A4"], "special": [{}, {}], "digital IO": [0, 0, 1, 1], "convertedValues": 1}}
# EndOfHeader
0.0	0.0	0.0	0.0	0.0	0.003	-0.054	
1.0	0.0	0.0	0.0	0.0	0.042	-0.086	
2.0	0.0	0.0	0.0	0.0	0.073	-0.112	
3.0	0.0	0.0	0.0	0.0	0.102	-0.109	
4.0	0.0	0.0	0.0	0.0	0.128	-0.121	
5.0	0.0	0.0	0.0	0.0	0.144	-0.109	
6.0	0.0	0.0	0.0	0.0	0.128	-0.099	
7.0	0.0	0.0	0.0	0.0	0.096	-0.07	
8.0	0.0	0.0	0.0	0.0	0.057	-0.032	
9.0	0.0	0.0	0.0	0.0	0.016	-0.013	
10.0	0.0	0.0	0.0	0.0	-0.022	0.022	
11.0	0.0	0.0	0.0	0.0	-0.051	0.051	
12.0	0.0	0.0	0.0	0.0	-0.086	0.08	
13.0	0.0	0.0	0.0	0.0	-0.112	0.089	
14.0	0.0	0.0	0.0	0.0	-0.134	0.086	
15.0	0.0	0.0	0.0	0.0	-0.147	0.077	
0.0	0.0	0.0	0.0	0.0	-0.15	0.064	
1.0	0.0	0.0	0.0	0.0	-0.125	0.032	
2.0	0.0	0.0	0.0	0.0	-0.083	0.006	
3.0	0.0	0.0	0.0	0.0	-0.032	-0.019	
4.0	0.0	0.0	0.0	0.0	0.006	-0.032	
5.0	0.0	0.0	0.0	0.0	0.051	-0.077	
6.0	0.0	0.0	0.0	0.0	0.099	-0.102	
7.0	0.0	0.0	0.0	0.0	0.121	-0.125	
8.0	0.0	0.0	0.0	0.0	0.137	-0.128	
9.0	0.0	0.0	0.0	0.0	0.144	-0.115	
10.0	0.0	0.0	0.0	0.0	0.131	-0.109	
11.0	0.0	0.0	0.0	0.0	0.115	-0.083	
12.0	0.0	0.0	0.0	0.0	0.073	-0.045	
13.0	0.0	0.0	0.0	0.0	0.038	-0.013	
14.0	0.0	0.0	0.0	0.0	0.0	0.022	
15.0	0.0	0.0	0.0	0.0	-0.045	0.057	
0.0	0.0	0.0	0.0	0.0	-0.093	0.083	
1.0	0.0	0.0	0.0	0.0	-0.112	0.089	
2.0	0.0	0.0	0.0	0.0	-0.131	0.099	
3.0	0.0	0.0	0.0	0.0	-0.137	0.089	
4.0	0.0	0.0	0.0	0.0	-0.134	0.077	
5.0	0.0	0.0	0.0	0.0	-0.105	0.048	
6.0	0.0	0.0	0.0	0.0	-0.073	0.003	
7.0	0.0	0.0	0.0	0.0	-0.042	-0.019	
8.0	0.0	0.0	0.0	0.0	-0.003	-0.048	
9.0	0.0	0.0	0.0	0.0	0.048	-0.08	
10.0	0.0	0.0	0.0	0.0	0.093	-0.109	
11.0	0.0	0.0	0.0	0.0	0.115	-0.128	
12.0	0.0	0.0	0.0	0.0	0.131	-0.115	
13.0	0.0	0.0	0.0	0.0	0.134	-0.125	
14.0	0.0	0.0	0.0	0.0	0.128	-0.105	
15.0	0.0	0.0	0.0	0.0	0.105	-0.07	
0.0	0.0	0.0	0.0	0.0	0.077	-0.045	
1.0	0.0	0.0	0.0	0.0	0.048	-0.022	
2.0	0.0	0.0	0.0	0.0	0.003	0.019	
3.0	0.0	0.0	0.0	0.0	-0.051	0.054	
4.0	0.0	0.0	0.0	0.0	-0.099	0.077	
5.0	0.0	0.0	0.0	0.0	-0.118	0.093	
6.0	0.0	0.0	0.0	0.0	-0.131	0.093	
7.0	0.0	0.0	0.0	0.0	-0.134	0.08	
8.0	0.0	0.0	0.0	0.0	-0.134	0.077	
9.0	0.0	0.0	0.0	0.0	-0.115	0.057	
10.0	0.0	0.0	0.0	0.0	-0.083	0.006	
11.0	0.0	0.0	0.0	0.0	-0.054	-0.016	
12.0	0.0	0.0	0.0	0.0	-0.016	-0.054	
13.0	0.0	0.0	0.0	0.0	0.032	-0.08	
14.0	0.0	0.0	0.0	0.0	0.073	-0.099	
15.0	0.0	0.0	0.0	0.0	0.112	-0.115	
0.0	0.0	0.0	0.0	0.0	0.141	-0.121	
1.0	0.0	0.0	0.0	0.0	0.15	-0.112	
2.0	0.0	0.0	0.0	0.0	0.141	-0.105	
3.0	0.0	0.0	0.0	0.0	0.105	-0.086	
4.0	0.0	0.0	0.0	0.0	0.051	-0.045	
5.0	0.0	0.0	0.0	0.0	0.022	-0.01	
6.0	0.0	0.0	0.0	0.0	-0.003	0.019	
7.0	0.0	0.0	0.0	0.0	-0.045	0.054	
8.0	0.0	0.0	0.0	0.0	-0.08	0.083	
9.0	0.0	0.0	0.0	0.0	-0.112	0.086	
10.0	0.0	0.0	0.0	0.0	-0.134	0.093	
11.0	0.0	0.0	0.0	0.0	-0.144	0.086	
12.0	0.0	0.0	0.0	0.0	-0.137	0.077	
13.0	0.0	0.0	0.0	0.0	-0.102	0.045	
14.0	0.0	0.0	0.0	0.0	-0.064	0.01	
15.0	0.0	0.0	0.0	0.0	-0.032	-0.019	
0.0	0.0	0.0	0.0	0.0	0.013	-0.038	
1.0	0.0	0.0	0.0	0.0	0.061	-0.083	
2.0	0.0	0.0	0.0	0.0	0.096	-0.109	
3.0	0.0	0.0	0.0	0.0	0.118	-0.115	
4.0	0.0	0.0	0.0	0.0	0.131	-0.125	
5.0	0.0	0.0	0.0	0.0	0.137	-0.125	
6.0	0.0	0.0	0.0	0.0	0.141	-0.118	
7.0	0.0	0.0	0.0	0.0	0.115	-0.077	
8.0	0.0	0.0	0.0	0.0	0.07	-0.045	
9.0	0.0	0.0	0.0	0.0	0.035	-0.01	
10.0	0.0	0.0	0.0	0.0	-0.01	0.022	
11.0	0.0	0.0	0.0	0.0	-0.051	0.061	
12.0	0.0	0.0	0.0	0.0	-0.093	0.089	
13.0	0.0	0.0	0.0	0.0	-0.115	0.096	
14.0	0.0	0.0	0.0	0.0	-0.125	0.099	
15.0	0.0	0.0	0.0	0.0	-0.141	0.089	
0.0	0.0	0.0	0.0	0.0	-0.15	0.067	
1.0	0.0	0.0	0.0	0.0	-0.131	0.038	
2.0	0.0	0.0	0.0	0.0	-0.086	0.003	
3.0	0.0	0.0	0.0	0.0	-0.042	-0.022	
4.0	0.0	0.0	0.0	0.0	0.003	-0.042	
5.0	0.0	0.0	0.0	0.0	0.042	-0.08	
6.0	0.0	0.0	0.0	0.0	0.086	-0.105	
7.0	0.0	0.0	0.0	0.0	0.112	-0.128	
8.0	0.0	0.0	0.0	0.0	0.137	-0.118	
9.0	0.0	0.0	0.0	0.0	0.141	-0.118	
10.0	0.0	0.0	0.0	0.0	0.141	-0.112	
11.0	0.0	0.0	0.0	0.0	0.115	-0.089	
12.0	0.0	0.0	0.0	0.0	0.073	-0.045	
13.0	0.0	0.0	0.0	0.0	0.042	-0.016	
14.0	0.0	0.0	0.0	0.0	0.003	0.022	
15.0	0.0	0.0	0.0	0.0	-0.038	0.054	
0.0	0.0	0.0	0.0	0.0	-0.083	0.093	
1.0	0.0	0.0	0.0	0.0	-0.112	0.099	
2.0	0.0	0.0	0.0	0.0	-0.121	0.089	
3.0	0.0	0.0	0.0	0.0	-0.128	0.086	
4.0	0.0	0.0	0.0	0.0	-0.131	0.073	
5.0	0.0	0.0	0.0	0.0	-0.105	0.042	
6.0	0.0	0.0	0.0	0.0	-0.073	0.01	
7.0	0.0	0.0	0.0	0.0	-0.051	-0.019	
8.0	0.0	0.0	0.0	0.0	-0.022	-0.061	
9.0	0.0	0.0	0.0	0.0	0.029	-0.083	
10.0	0.0	0.0	0.0	0.0	0.077	-0.112	
11.0	0.0	0.0	0.0	0.0	0.096	-0.125	
12.0	0.0	0.0	0.0	0.0	0.112	-0.121	
13.0	0.0	0.0	0.0	0.0	0.118	-0.115	
14.0	0.0	0.0	0.0	0.0	0.128	-0.105	
15.0	0.0	0.0	0.0	0.0	0.112	-0.073	
0.0	0.0	0.0	0.0	0.0	0.073	-0.035	
1.0	0.0	0.0	0.0	0.0	0.048	-0.013	
2.0	0.0	0.0	0.0	0.0	0.013	0.022	
3.0	0.0	0.0	0.0	0.0	-0.042	0.054	
4.0	0.0	0.0	0.0	0.0	-0.08	0.083	
5.0	0.0	0.0	0.0	0.0	-0.115	0.096	
6.0	0.0	0.0	0.0	0.0	-0.137	0.093	
7.0	0.0	0.0	0.0	0.0	-0.144	0.086	
8.0	0.0	0.0	0.0	0.0	-0.137	0.073	
9.0	0.0	0.0	0.0	0.0	-0.105	0.051	
10.0	0.0	0.0	0.0	0.0	-0.07	0.013	
11.0	0.0	0.0	0.0	0.0	-0.032	-0.016	
12.0	0.0	0.0	0.0	0.0	0.003	-0.061	
13.0	0.0	0.0	0.0	0.0	0.045	-0.086	
14.0	0.0	0.0	0.0	0.0	0.089	-0.115	
15.0	0.0	0.0	0.0	0.0	0.112	-0.125	
0.0	0.0	0.0	0.0	0.0	0.112	-0.125	
1.0	0.0	0.0	0.0	0.0	0.131	-0.115	
2.0	0.0	0.0	0.0	0.0	0.141	-0.109	
3.0	0.0	0.0	0.0	0.0	0.112	-0.08	
4.0	0.0	0.0	0.0	0.0	0.061	-0.051	
5.0	0.0	0.0	0.0	0.0	0.019	-0.026	
6.0	0.0	0.0	0.0	0.0	-0.016	0.01	
7.0	0.0	0.0	0.0	0.0	-0.051	0.051	
8.0	0.0	0.0	0.0	0.0	-0.089	0.083	
9.0	0.0	0.0	0.0	0.0	-0.112	0.096	
10.0	0.0	0.0	0.0	0.0	-0.118	0.102	
11.0	0.0	0.0	0.0	0.0	-0.128	0.093	
12.0	0.0	0.0	0.0	0.0	-0.128	0.077	
13.0	0.0	0.0	0.0	0.0	-0.099	0.048	
14.0	0.0	0.0	0.0	0.0	-0.048	0.019	
15.0	0.0	0.0	0.0	0.0	-0.013	-0.019	
0.0	0.0	0.0	0.0	0.0	0.022	-0.042	
1.0	0.0	0.0	0.0	0.0	0.032	-0.077	
2.0	0.0	0.0	0.0	0.0	0.067	-0.099	
3.0	0.0	0.0	0.0	0.0	0.089	-0.118	
4.0	0.0	0.0	0.0	0.0	0.105	-0.128	
5.0	0.0	0.0	0.0	0.0	0.121	-0.121	
6.0	0.0	0.0	0.0	0.0	0.115	-0.112	
7.0	0.0	0.0	0.0	0.0	0.099	-0.08	
8.0	0.0	0.0	0.0	0.0	0.064	-0.051	
9.0	0.0	0.0	0.0	0.0	0.038	-0.026	
10.0	0.0	0.0	0.0	0.0	0.003	0.01	
11.0	0.0	0.0	0.0	0.0	-0.029	0.054	
12.0	0.0	0.0	0.0	0.0	-0.086	0.083	
13.0	0.0	0.0	0.0	0.0	-0.125	0.08	
14.0	0.0	0.0	0.0	0.0	-0.134	0.096	
15.0	0.0	0.0	0.0	0.0	-0.141	0.105	
0.0	0.0	0.0	0.0	0.0	-0.134	0.08	
1.0	0.0	0.0	0.0	0.0	-0.099	0.038	
2.0	0.0	0.0	0.0	0.0	-0.064	0.006	
3.0	0.0	0.0	0.0	0.0	-0.026	-0.022	
4.0	0.0	0.0	0.0	0.0	0.013	-0.051	
5.0	0.0	0.0	0.0	0.0	0.048	-0.08	
6.0	0.0	0.0	0.0	0.0	0.096	-0.109	
7.0	0.0	0.0	0.0	0.0	0.112	-0.112	
8.0	0.0	0.0	0.0	0.0	0.125	-0.118	
9.0	0.0	0.0	0.0	0.0	0.134	-0.118	
10.0	0.0	0.0	0.0	0.0	0.134	-0.118	
11.0	0.0	0.0	0.0	0.0	0.109	-0.077	
12.0	0.0	0.0	0.0	0.0	0.07	-0.048	
13.0	0.0	0.0	0.0	0.0	0.042	-0.006	
14.0	0.0	0.0	0.0	0.0	0.01	0.029	
15.0	0.0	0.0	0.0	0.0	-0.042	0.067	
0.0	0.0	0.0	0.0	0.0	-0.099	0.083	
1.0	0.0	0.0	0.0	0.0	-0.128	0.089	
2.0	0.0	0.0	0.0	0.0	-0.128	0.086	
3.0	0.0	0.0	0.0	0.0	-0.141	0.083	
4.0	0.0	0.0	0.0	0.0	-0.147	0.064	
5.0	0.0	0.0	0.0	0.0	-0.121	0.035	
6.0	0.0	0.0	0.0	0.0	-0.077	0.01	
7.0	0.0	0.0	0.0	0.0	-0.048	-0.01	
8.0	0.0	0.0	0.0	0.0	-0.01	-0.042	
9.0	0.0	0.0	0.0	0.0	0.048	-0.083	
10.0	0.0	0.0	0.0	0.0	0.086	-0.102	
11.0	0.0	0.0	0.0	0.0	0.121	-0.118	
12.0	0.0	0.0	0.0	0.0	0.134	-0.118	
13.0	0.0	0.0	0.0	0.0	0.134	-0.115	
14.0	0.0	0.0	0.0	0.0	0.141	-0.105	
15.0	0.0	0.0	0.0	0.0	0.112	-0.08	
0.0	0.0	0.0	0.0	0.0	0.067	-0.051	
1.0	0.0	0.0	0.0	0.0	0.032	-0.022	
2.0	0.0	0.0	0.0	0.0	-0.003	0.013	
3.0	0.0	0.0	0.0	0.0	-0.048	0.048	
4.0	0.0	0.0	0.0	0.0	-0.089	0.086	
5.0	0.0	0.0	0.0	0.0	-0.118	0.099	
6.0	0.0	0.0	0.0	0.0	-0.131	0.093	
7.0	0.0	0.0	0.0	0.0	-0.134	0.096	
8.0	0.0	0.0	0.0	0.0	-0.112	0.077	
9.0	0.0	0.0	0.0	0.0	-0.105	0.045	
10.0	0.0	0.0	0.0	0.0	-0.07	0.01	
11.0	0.0	0.0	0.0	0.0	-0.032	-0.006	
12.0	0.0	0.0	0.0	0.0	0.0	-0.042	
13.0	0.0	0.0	0.0	0.0	0.035	-0.083	
14.0	0.0	0.0	0.0	0.0	0.089	-0.112	
15.0	0.0	0.0	0.0	0.0	0.112	-0.125	
0.0	0.0	0.0	0.0	0.0	0.125	-0.125	
1.0	0.0	0.0	0.0	0.0	0.137	-0.112	
2.0	0.0	0.0	0.0	0.0	0.137	-0.115	
3.0	0.0	0.0	0.0	0.0	0.109	-0.083	
4.0	0.0	0.0	0.0	0.0	0.073	-0.048	
5.0	0.0	0.0	0.0	0.0	0.035	-0.013	
6.0	0.0	0.0	0.0	0.0	-0.003	0.016	
7.0	0.0	0.0	0.0	0.0	-0.048	0.048	
8.0	0.0	0.0	0.0	0.0	-0.096	0.08	
9.0	0.0	0.0	0.0	0.0	-0.137	0.086	
10.0	0.0	0.0	0.0	0.0	-0.15	0.086	
11.0	0.0	0.0	0.0	0.0	-0.147	0.093	
12.0	0.0	0.0	0.0	0.0	-0.144	0.077	
13.0	0.0	0.0	0.0	0.0	-0.105	0.054	
14.0	0.0	0.0	0.0	0.0	-0.064	0.0	
15.0	0.0	0.0	0.0	0.0	-0.029	-0.022	
0.0	0.0	0.0	0.0	0.0	0.01	-0.057	
1.0	0.0	0.0	0.0	0.0	0.051	-0.083	
2.0	0.0	0.0	0.0	0.0	0.07	-0.115	
3.0	0.0	0.0	0.0	0.0	0.112	-0.121	
4.0	0.0	0.0	0.0	0.0	0.131	-0.112	
5.0	0.0	0.0	0.0	0.0	0.131	-0.109	
6.0	0.0	0.0	0.0	0.0	0.128	-0.099	
7.0	0.0	0.0	0.0	0.0	0.112	-0.08	
8.0	0.0	0.0	0.0	0.0	0.083	-0.032	
9.0	0.0	0.0	0.0	0.0	0.038	-0.006	
10.0	0.0	0.0	0.0	0.0	0.0	0.029	
11.0	0.0	0.0	0.0	0.0	-0.032	0.061	
12.0	0.0	0.0	0.0	0.0	-0.093	0.093	
13.0	0.0	0.0	0.0	0.0	-0.115	0.089	
14.0	0.0	0.0	0.0	0.0	-0.125	0.089	
15.0	0.0	0.0	0.0	0.0	-0.131	0.08	
0.0	0.0	0.0	0.0	0.0	-0.131	0.073	
1.0	0.0	0.0	0.0	0.0	-0.102	0.038	
2.0	0.0	0.0	0.0	0.0	-0.073	0.003	
3.0	0.0	0.0	0.0	0.0	-0.042	-0.026	
4.0	0.0	0.0	0.0	0.0	-0.01	-0.054	
5.0	0.0	0.0	0.0	0.0	0.038	-0.086	
6.0	0.0	0.0	0.0	0.0	0.089	-0.102	
7.0	0.0	0.0	0.0	0.0	0.105	-0.118	
8.0	0.0	0.0	0.0	0.0	0.121	-0.118	
9.0	0.0	0.0	0.0	0.0	0.128	-0.112	
10.0	0.0	0.0	0.0	0.0	0.121	-0.105	
11.0	0.0	0.0	0.0	0.0	0.118	-0.08	
12.0	0.0	0.0	0.0	0.0	0.077	-0.048	
13.0	0.0	0.0	0.0	0.0	0.029	-0.013	
14.0	0.0	0.0	0.0	0.0	-0.019	0.022	
15.0	0.0	0.0	0.0	0.0	-0.057	0.057	
0.0	0.0	0.0	0.0	0.0	-0.105	0.08	
1.0	0.0	0.0	0.0	0.0	-0.134	0.086	
2.0	0.0	0.0	0.0	0.0	-0.131	0.089	
3.0	0.0	0.0	0.0	0.0	-0.134	0.089	
4.0	0.0	0.0	0.0	0.0	-0.125	0.07	
5.0	0.0	0.0	0.0	0.0	-0.099	0.048	
6.0	0.0	0.0	0.0	0.0	-0.054	0.013	
7.0	0.0	0.0	0.0	0.0	-0.013	-0.01	
8.0	0.0	0.0	0.0	0.0	0.019	-0.048	
9.0	0.0	0.0	0.0	0.0	0.064	-0.083	
10.0	0.0	0.0	0.0	0.0	0.096	-0.115	
11.0	0.0	0.0	0.0	0.0	0.105	-0.131	
12.0	0.0	0.0	0.0	0.0	0.118	-0.125	
13.0	0.0	0.0	0.0	0.0	0.115	-0.118	
14.0	0.0	0.0	0.0	0.0	0.112	-0.115	
15.0	0.0	0.0	0.0	0.0	0.089	-0.083	
0.0	0.0	0.0	0.0	0.0	0.061	-0.045	
1.0	0.0	0.0	0.0	0.0	0.029	-0.016	
2.0	0.0	0.0	0.0	0.0	-0.013	0.026	
3.0	0.0	0.0	0.0	0.0	-0.045	0.061	
4.0	0.0	0.0	0.0	0.0	-0.089	0.089	
5.0	0.0	0.0	0.0	0.0	-0.115	0.099	
6.0	0.0	0.0	0.0	0.0	-0.125	0.096	
7.0	0.0	0.0	0.0	0.0	-0.125	0.089	
8.0	0.0	0.0	0.0	0.0	-0.128	0.077	
9.0	0.0	0.0	0.0	0.0	-0.099	0.038	
10.0	0.0	0.0	0.0	0.0	-0.064	0.01	
11.0	0.0	0.0	0.0	0.0	-0.038	-0.022	
12.0	0.0	0.0	0.0	0.0	0.006	-0.051	
13.0	0.0	0.0	0.0	0.0	0.051	-0.077	
14.0	0.0	0.0	0.0	0.0	0.08	-0.115	
15.0	0.0	0.0	0.0	0.0	0.102	-0.131	
0.0	0.0	0.0	0.0	0.0	0.121	-0.115	
1.0	0.0	0.0	0.0	0.0	0.131	-0.118	
2.0	0.0	0.0	0.0	0.0	0.121	-0.118	
3.0	0.0	0.0	0.0	0.0	0.105	-0.08	
4.0	0.0	0.0	0.0	0.0	0.073	-0.042	
5.0	0.0	0.0	0.0	0.0	0.038	-0.013	
6.0	0.0	0.0	0.0	0.0	0.0	0.016	
7.0	0.0	0.0	0.0	0.0	-0.048	0.051	
8.0	0.0	0.0	0.0	0.0	-0.093	0.086	
9.0	0.0	0.0	0.0	0.0	-0.118	0.096	
10.0	0.0	0.0	0.0	0.0	-0.125	0.096	
11.0	0.0	0.0	0.0	0.0	-0.134	0.099	
12.0	0.0	0.0	0.0	0.0	-0.128	0.08	
13.0	0.0	0.0	0.0	0.0	-0.109	0.051	
14.0	0.0	0.0	0.0	0.0	-0.08	0.003	
15.0	0.0	0.0	0.0	0.0	-0.042	-0.026	
0.0	0.0	0.0	0.0	0.0	-0.01	-0.048	
1.0	0.0	0.0	0.0	0.0	0.042	-0.077	
2.0	0.0	0.0	0.0	0.0	0.089	-0.102	
3.0	0.0	0.0	0.0	0.0	0.118	-0.112	
4.0	0.0	0.0	0.0	0.0	0.134	-0.118	
5.0	0.0	0.0	0.0	0.0	0.144	-0.112	
6.0	0.0	0.0	0.0	0.0	0.137	-0.109	
7.0	0.0	0.0	0.0	0.0	0.115	-0.08	
8.0	0.0	0.0	0.0	0.0	0.077	-0.042	
9.0	0.0	0.0	0.0	0.0	0.035	-0.019	
10.0	0.0	0.0	0.0	0.0	0.003	0.006	
11.0	0.0	0.0	0.0	0.0	-0.051	0.048	
12.0	0.0	0.0	0.0	0.0	-0.093	0.08	
13.0	0.0	0.0	0.0	0.0	-0.115	0.083	
14.0	0.0	0.0	0.0	0.0	-0.128	0.089	
15.0	0.0	0.0	0.0	0.0	-0.125	0.089	
0.0	0.0	0.0	0.0	0.0	-0.128	0.08	
1.0	0.0	0.0	0.0	0.0	-0.102	0.048	
2.0	0.0	0.0	0.0	0.0	-0.064	0.003	
3.0	0.0	0.0	0.0	0.0	-0.029	-0.026	
4.0	0.0	0.0	0.0	0.0	0.006	-0.051	
5.0	0.0	0.0	0.0	0.0	0.051	-0.083	
6.0	0.0	0.0	0.0	0.0	0.093	-0.112	
7.0	0.0	0.0	0.0	0.0	0.118	-0.121	
8.0	0.0	0.0	0.0	0.0	0.121	-0.109	
9.0	0.0	0.0	0.0	0.0	0.121	-0.115	
10.0	0.0	0.0	0.0	0.0	0.115	-0.112	
11.0	0.0	0.0	0.0	0.0	0.099	-0.08	
12.0	0.0	0.0	0.0	0.0	0.061	-0.042	
13.0	0.0	0.0	0.0	0.0	0.022	-0.01	
14.0	0.0	0.0	0.0	0.0	-0.022	0.016	
15.0	0.0	0.0	0.0	0.0	-0.057	0.048	
0.0	0.0	0.0	0.0	0.0	-0.086	0.077	
1.0	0.0	0.0	0.0	0.0	-0.109	0.093	
2.0	0.0	0.0	0.0	0.0	-0.118	0.089	
3.0	0.0	0.0	0.0	0.0	-0.128	0.089	
4.0	0.0	0.0	0.0	0.0	-0.128	0.077	
5.0	0.0	0.0	0.0	0.0	-0.109	0.042	
6.0	0.0	0.0	0.0	0.0	-0.083	0.0	
7.0	0.0	0.0	0.0	0.0	-0.048	-0.029	
8.0	0.0	0.0	0.0	0.0	-0.006	-0.045	
9.0	0.0	0.0	0.0	0.0	0.048	-0.067	
10.0	0.0	0.0	0.0	0.0	0.102	-0.099	
11.0	0.0	0.0	0.0	0.0	0.131	-0.118	
12.0	0.0	0.0	0.0	0.0	0.131	-0.118	
13.0	0.0	0.0	0.0	0.0	0.137	-0.115	
14.0	0.0	0.0	0.0	0.0	0.137	-0.115	
15.0	0.0	0.0	0.0	0.0	0.112	-0.086	
0.0	0.0	0.0	0.0	0.0	0.07	-0.038	
1.0	0.0	0.0	0.0	0.0	0.022	-0.006	
2.0	0.0	0.0	0.0	0.0	-0.022	0.013	
3.0	0.0	0.0	0.0	0.0	-0.067	0.045	
4.0	0.0	0.0	0.0	0.0	-0.093	0.083	
5.0	0.0	0.0	0.0	0.0	-0.115	0.102	
6.0	0.0	0.0	0.0	0.0	-0.128	0.099	
7.0	0.0	0.0	0.0	0.0	-0.128	0.086	
8.0	0.0	0.0	0.0	0.0	-0.128	0.073	
9.0	0.0	0.0	0.0	0.0	-0.099	0.038	
10.0	0.0	0.0	0.0	0.0	-0.067	0.006	
11.0	0.0	0.0	0.0	0.0	-0.016	-0.019	
12.0	0.0	0.0	0.0	0.0	0.003	-0.045	
13.0	0.0	0.0	0.0	0.0	0.048	-0.08	
14.0	0.0	0.0	0.0	0.0	0.083	-0.102	
15.0	0.0	0.0	0.0	0.0	0.112	-0.105	
0.0	0.0	0.0	0.0	0.0	0.131	-0.115	
1.0	0.0	0.0	0.0	0.0	0.134	-0.109	
2.0	0.0	0.0	0.0	0.0	0.125	-0.105	
3.0	0.0	0.0	0.0	0.0	0.105	-0.08	
4.0	0.0	0.0	0.0	0.0	0.064	-0.054	
5.0	0.0	0.0	0.0	0.0	0.038	-0.019	
6.0	0.0	0.0	0.0	0.0	0.0	0.01	
7.0	0.0	0.0	0.0	0.0	-0.051	0.048	
8.0	0.0	0.0	0.0	0.0	-0.089	0.073	
9.0	0.0	0.0	0.0	0.0	-0.118	0.086	
10.0	0.0	0.0	0.0	0.0	-0.131	0.089	
11.0	0.0	0.0	0.0	0.0	-0.134	0.086	
12.0	0.0	0.0	0.0	0.0	-0.137	0.077	
13.0	0.0	0.0	0.0	0.0	-0.105	0.045	
14.0	0.0	0.0	0.0	0.0	-0.067	0.006	
15.0	0.0	0.0	0.0	0.0	-0.029	-0.013	
0.0	0.0	0.0	0.0	0.0	0.01	-0.035	
1.0	0.0	0.0	0.0	0.0	0.042	-0.08	
2.0	0.0	0.0	0.0	0.0	0.08	-0.102	
3.0	0.0	0.0	0.0	0.0	0.109	-0.121	
4.0	0.0	0.0	0.0	0.0	0.112	-0.115	
5.0	0.0	0.0	0.0	0.0	0.121	-0.109	
6.0	0.0	0.0	0.0	0.0	0.115	-0.115	
7.0	0.0	0.0	0.0	0.0	0.099	-0.08	
8.0	0.0	0.0	0.0	0.0	0.073	-0.038	
9.0	0.0	0.0	0.0	0.0	0.051	-0.016	
10.0	0.0	0.0	0.0	0.0	0.006	0.013	
11.0	0.0	0.0	0.0	0.0	-0.038	0.054	
12.0	0.0	0.0	0.0	0.0	-0.083	0.086	
13.0	0.0	0.0	0.0	0.0	-0.112	0.089	
14.0	0.0	0.0	0.0	0.0	-0.121	0.093	
15.0	0.0	0.0	0.0	0.0	-0.128	0.089	
0.0	0.0	0.0	0.0	0.0	-0.131	0.073	
1.0	0.0	0.0	0.0	0.0	-0.112	0.045	
2.0	0.0	0.0	0.0	0.0	-0.083	0.01	
3.0	0.0	0.0	0.0	0.0	-0.048	-0.026	
4.0	0.0	0.0	0.0	0.0	-0.013	-0.048	
5.0	0.0	0.0	0.0	0.0	0.019	-0.077	
6.0	0.0	0.0	0.0	0.0	0.064	-0.115	
7.0	0.0	0.0	0.0	0.0	0.099	-0.118	
8.0	0.0	0.0	0.0	0.0	0.134	-0.112	
9.0	0.0	0.0	0.0	0.0	0.134	-0.112	
10.0	0.0	0.0	0.0	0.0	0.128	-0.099	
11.0	0.0	0.0	0.0	0.0	0.105	-0.077	
12.0	0.0	0.0	0.0	0.0	0.08	-0.042	
13.0	0.0	0.0	0.0	0.0	0.042	-0.01	
14.0	0.0	0.0	0.0	0.0	-0.003	0.01	
15.0	0.0	0.0	0.0	0.0	-0.035	0.045	
0.0	0.0	0.0	0.0	0.0	-0.08	0.077	
1.0	0.0	0.0	0.0	0.0	-0.109	0.089	
2.0	0.0	0.0	0.0	0.0	-0.131	0.086	
3.0	0.0	0.0	0.0	0.0	-0.141	0.077	
4.0	0.0	0.0	0.0	0.0	-0.144	0.07	
5.0	0.0	0.0	0.0	0.0	-0.118	0.051	
6.0	0.0	0.0	0.0	0.0	-0.07	0.003	
7.0	0.0	0.0	0.0	0.0	-0.038	-0.016	
8.0	0.0	0.0	0.0	0.0	0.01	-0.038	
9.0	0.0	0.0	0.0	0.0	0.054	-0.073	
10.0	0.0	0.0	0.0	0.0	0.096	-0.096	
11.0	0.0	0.0	0.0	0.0	0.102	-0.112	
12.0	0.0	0.0	0.0	0.0	0.115	-0.121	
13.0	0.0	0.0	0.0	0.0	0.125	-0.115	
14.0	0.0	0.0	0.0	0.0	0.134	-0.102	
15.0	0.0	0.0	0.0	0.0	0.131	-0.083	
0.0	0.0	0.0	0.0	0.0	0.089	-0.048	
1.0	0.0	0.0	0.0	0.0	0.038	-0.013	
2.0	0.0	0.0	0.0	0.0	-0.01	0.013	
3.0	0.0	0.0	0.0	0.0	-0.048	0.048	
4.0	0.0	0.0	0.0	0.0	-0.08	0.073	
5.0	0.0	0.0	0.0	0.0	-0.109	0.086	
6.0	0.0	0.0	0.0	0.0	-0.125	0.096	
7.0	0.0	0.0	0.0	0.0	-0.141	0.096	
8.0	0.0	0.0	0.0	0.0	-0.141	0.061	
9.0	0.0	0.0	0.0	0.0	-0.128	0.029	
10.0	0.0	0.0	0.0	0.0	-0.08	0.003	
11.0	0.0	0.0	0.0	0.0	-0.035	-0.022	
12.0	0.0	0.0	0.0	0.0	0.016	-0.048	
13.0	0.0	0.0	0.0	0.0	0.054	-0.08	
14.0	0.0	0.0	0.0	0.0	0.096	-0.099	
15.0	0.0	0.0	0.0	0.0	0.118	-0.112	
0.0	0.0	0.0	0.0	0.0	0.131	-0.109	
1.0	0.0	0.0	0.0	0.0	0.121	-0.105	
2.0	0.0	0.0	0.0	0.0	0.125	-0.099	
3.0	0.0	0.0	0.0	0.0	0.109	-0.08	
4.0	0.0	0.0	0.0	0.0	0.067	-0.048	
5.0	0.0	0.0	0.0	0.0	0.026	-0.029	
6.0	0.0	0.0	0.0	0.0	-0.013	0.0	
7.0	0.0	0.0	0.0	0.0	-0.048	0.057	
8.0	0.0	0.0	0.0	0.0	-0.096	0.073	
9.0	0.0	0.0	0.0	0.0	-0.131	0.089	
10.0	0.0	0.0	0.0	0.0	-0.141	0.083	
11.0	0.0	0.0	0.0	0.0	-0.144	0.086	
12.0	0.0	0.0	0.0	0.0	-0.144	0.073	
13.0	0.0	0.0	0.0	0.0	-0.112	0.048	
14.0	0.0	0.0	0.0	0.0	-0.061	0.016	
15.0	0.0	0.0	0.0	0.0	-0.026	-0.013	
0.0	0.0	0.0	0.0	0.0	0.013	-0.042	
1.0	0.0	0.0	0.0	0.0	0.057	-0.073	
2.0	0.0	0.0	0.0	0.0	0.093	-0.096	
3.0	0.0	0.0	0.0	0.0	0.112	-0.115	
4.0	0.0	0.0	0.0	0.0	0.125	-0.121	
5.0	0.0	0.0	0.0	0.0	0.131	-0.109	
6.0	0.0	0.0	0.0	0.0	0.137	-0.102	
7.0	0.0	0.0	0.0	0.0	0.109	-0.077	
8.0	0.0	0.0	0.0	0.0	0.073	-0.042	
9.0	0.0	0.0	0.0	0.0	0.038	-0.01	
10.0	0.0	0.0	0.0	0.0	-0.003	0.016	
11.0	0.0	0.0	0.0	0.0	-0.054	0.045	
12.0	0.0	0.0	0.0	0.0	-0.105	0.07	
13.0	0.0	0.0	0.0	0.0	-0.125	0.089	
14.0	0.0	0.0	0.0	0.0	-0.128	0.089	
15.0	0.0	0.0	0.0	0.0	-0.128	0.086	
0.0	0.0	0.0	0.0	0.0	-0.121	0.073	
1.0	0.0	0.0	0.0	0.0	-0.109	0.035	
2.0	0.0	0.0	0.0	0.0	-0.083	0.003	
3.0	0.0	0.0	0.0	0.0	-0.048	-0.019	
4.0	0.0	0.0	0.0	0.0	-0.006	-0.048	
5.0	0.0	0.0	0.0	0.0	0.038	-0.073	
6.0	0.0	0.0	0.0	0.0	0.08	-0.096	
7.0	0.0	0.0	0.0	0.0	0.109	-0.118	
8.0	0.0	0.0	0.0	0.0	0.121	-0.115	
9.0	0.0	0.0	0.0	0.0	0.134	-0.115	
10.0	0.0	0.0	0.0	0.0	0.134	-0.099	
11.0	0.0	0.0	0.0	0.0	0.105	-0.086	
12.0	0.0	0.0	0.0	0.0	0.064	-0.045	
13.0	0.0	0.0	0.0	0.0	0.042	-0.006	
14.0	0.0	0.0	0.0	0.0	0.0	0.029	
15.0	0.0	0.0	0.0	0.0	-0.042	0.051	
0.0	0.0	0.0	0.0	0.0	-0.086	0.073	
1.0	0.0	0.0	0.0	0.0	-0.109	0.089	
2.0	0.0	0.0	0.0	0.0	-0.121	0.086	
3.0	0.0	0.0	0.0	0.0	-0.125	0.089	
4.0	0.0	0.0	0.0	0.0	-0.128	0.08	
5.0	0.0	0.0	0.0	0.0	-0.112	0.048	
6.0	0.0	0.0	0.0	0.0	-0.077	-0.006	
7.0	0.0	0.0	0.0	0.0	-0.042	-0.042	
8.0	0.0	0.0	0.0	0.0	-0.003	-0.057	
9.0	0.0	0.0	0.0	0.0	0.035	-0.086	
10.0	0.0	0.0	0.0	0.0	0.08	-0.105	
11.0	0.0	0.0	0.0	0.0	0.112	-0.109	
12.0	0.0	0.0	0.0	0.0	0.125	-0.109	
13.0	0.0	0.0	0.0	0.0	0.137	-0.112	
14.0	0.0	0.0	0.0	0.0	0.128	-0.099	
15.0	0.0	0.0	0.0	0.0	0.109	-0.077	
0.0	0.0	0.0	0.0	0.0	0.073	-0.045	
1.0	0.0	0.0	0.0	0.0	0.038	-0.016	
2.0	0.0	0.0	0.0	0.0	0.0	0.013	
3.0	0.0	0.0	0.0	0.0	-0.045	0.057	
4.0	0.0	0.0	0.0	0.0	-0.089	0.083	
5.0	0.0	0.0	0.0	0.0	-0.109	0.089	
6.0	0.0	0.0	0.0	0.0	-0.118	0.089	
7.0	0.0	0.0	0.0	0.0	-0.121	0.083	
8.0	0.0	0.0	0.0	0.0	-0.128	0.073	
9.0	0.0	0.0	0.0	0.0	-0.105	0.045	
10.0	0.0	0.0	0.0	0.0	-0.077	0.003	
11.0	0.0	0.0	0.0	0.0	-0.048	-0.026	
12.0	0.0	0.0	0.0	0.0	-0.016	-0.048	
13.0	0.0	0.0	0.0	0.0	0.035	-0.083	
14.0	0.0	0.0	0.0	0.0	0.089	-0.099	
15.0	0.0	0.0	0.0	0.0	0.115	-0.115	
0.0	0.0	0.0	0.0	0.0	0.134	-0.112	
1.0	0.0	0.0	0.0	0.0	0.144	-0.102	
2.0	0.0	0.0	0.0	0.0	0.144	-0.099	
3.0	0.0	0.0	0.0	0.0	0.125	-0.077	
4.0	0.0	0.0	0.0	0.0	0.064	-0.045	
5.0	0.0	0.0	0.0	0.0	0.022	-0.013	
6.0	0.0	0.0	0.0	0.0	-0.013	0.022	
7.0	0.0	0.0	0.0	0.0	-0.057	0.061	
8.0	0.0	0.0	0.0	0.0	-0.096	0.077	
9.0	0.0	0.0	0.0	0.0	-0.141	0.083	
10.0	0.0	0.0	0.0	0.0	-0.153	0.08	
11.0	0.0	0.0	0.0	0.0	-0.131	0.086	
12.0	0.0	0.0	0.0	0.0	-0.121	0.08	
13.0	0.0	0.0	0.0	0.0	-0.102	0.045	
14.0	0.0	0.0	0.0	0.0	-0.07	0.003	
15.0	0.0	0.0	0.0	0.0	-0.032	-0.019	
0.0	0.0	0.0	0.0	0.0	0.01	-0.051	
1.0	0.0	0.0	0.0	0.0	0.048	-0.08	
2.0	0.0	0.0	0.0	0.0	0.077	-0.102	
3.0	0.0	0.0	0.0	0.0	0.112	-0.118	
4.0	0.0	0.0	0.0	0.0	0.134	-0.115	
5.0	0.0	0.0	0.0	0.0	0.134	-0.115	
6.0	0.0	0.0	0.0	0.0	0.125	-0.112	
7.0	0.0	0.0	0.0	0.0	0.096	-0.083	
8.0	0.0	0.0	0.0	0.0	0.07	-0.035	
9.0	0.0	0.0	0.0	0.0	0.038	-0.016	
10.0	0.0	0.0	0.0	0.0	0.01	0.026	
11.0	0.0	0.0	0.0	0.0	-0.038	0.051	
12.0	0.0	0.0	0.0	0.0	-0.089	0.086	
13.0	0.0	0.0	0.0	0.0	-0.115	0.096	
14.0	0.0	0.0	0.0	0.0	-0.125	0.089	
15.0	0.0	0.0	0.0	0.0	-0.128	0.093	
0.0	0.0	0.0	0.0	0.0	-0.131	0.064	
1.0	0.0	0.0	0.0	0.0	-0.109	0.045	
2.0	0.0	0.0	0.0	0.0	-0.064	0.006	
3.0	0.0	0.0	0.0	0.0	-0.029	-0.022	
4.0	0.0	0.0	0.0	0.0	0.0	-0.051	
5.0	0.0	0.0	0.0	0.0	0.029	-0.089	
6.0	0.0	0.0	0.0	0.0	0.073	-0.112	
7.0	0.0	0.0	0.0	0.0	0.093	-0.121	
8.0	0.0	0.0	0.0	0.0	0.121	-0.112	
9.0	0.0	0.0	0.0	0.0	0.121	-0.109	
10.0	0.0	0.0	0.0	0.0	0.118	-0.105	
11.0	0.0	0.0	0.0	0.0	0.105	-0.077	
12.0	0.0	0.0	0.0	0.0	0.073	-0.035	
13.0	0.0	0.0	0.0	0.0	0.048	-0.003	
14.0	0.0	0.0	0.0	0.0	0.013	0.022	
15.0	0.0	0.0	0.0	0.0	-0.032	0.048	
0.0	0.0	0.0	0.0	0.0	-0.073	0.064	
1.0	0.0	0.0	0.0	0.0	-0.109	0.089	
2.0	0.0	0.0	0.0	0.0	-0.134	0.093	
3.0	0.0	0.0	0.0	0.0	-0.131	0.086	
4.0	0.0	0.0	0.0	0.0	-0.144	0.061	
5.0	0.0	0.0	0.0	0.0	-0.112	0.038	
6.0	0.0	0.0	0.0	0.0	-0.073	0.01	
7.0	0.0	0.0	0.0	0.0	-0.042	-0.019	
8.0	0.0	0.0	0.0	0.0	-0.016	-0.048	
9.0	0.0	0.0	0.0	0.0	0.026	-0.083	
10.0	0.0	0.0	0.0	0.0	0.077	-0.109	
11.0	0.0	0.0	0.0	0.0	0.118	-0.115	
12.0	0.0	0.0	0.0	0.0	0.131	-0.109	
13.0	0.0	0.0	0.0	0.0	0.144	-0.102	
14.0	0.0	0.0	0.0	0.0	0.131	-0.102	
15.0	0.0	0.0	0.0	0.0	0.105	-0.077	
0.0	0.0	0.0	0.0	0.0	0.067	-0.042	
1.0	0.0	0.0	0.0	0.0	0.029	-0.01	
2.0	0.0	0.0	0.0	0.0	-0.006	0.013	
3.0	0.0	0.0	0.0	0.0	-0.045	0.051	
4.0	0.0	0.0	0.0	0.0	-0.089	0.073	
5.0	0.0	0.0	0.0	0.0	-0.115	0.083	
6.0	0.0	0.0	0.0	0.0	-0.125	0.083	
7.0	0.0	0.0	0.0	0.0	-0.134	0.08	
8.0	0.0	0.0	0.0	0.0	-0.128	0.077	
9.0	0.0	0.0	0.0	0.0	-0.099	0.051	
10.0	0.0	0.0	0.0	0.0	-0.067	0.006	
11.0	0.0	0.0	0.0	0.0	-0.035	-0.016	
12.0	0.0	0.0	0.0	0.0	-0.006	-0.051	
13.0	0.0	0.0	0.0	0.0	0.042	-0.073	
14.0	0.0	0.0	0.0	0.0	0.073	-0.099	
15.0	0.0	0.0	0.0	0.0	0.105	-0.115	
0.0	0.0	0.0	0.0	0.0	0.121	-0.112	
1.0	0.0	0.0	0.0	0.0	0.128	-0.112	
2.0	0.0	0.0	0.0	0.0	0.131	-0.115	
3.0	0.0	0.0	0.0	0.0	0.112	-0.073	
4.0	0.0	0.0	0.0	0.0	0.073	-0.042	
5.0	0.0	0.0	0.0	0.0	0.045	-0.013	
6.0	0.0	0.0	0.0	0.0	-0.003	0.013	
7.0	0.0	0.0	0.0	0.0	-0.045	0.048	
8.0	0.0	0.0	0.0	0.0	-0.093	0.073	
9.0	0.0	0.0	0.0	0.0	-0.112	0.089	
10.0	0.0	0.0	0.0	0.0	-0.128	0.093	
11.0	0.0	0.0	0.0	0.0	-0.128	0.089	
12.0	0.0	0.0	0.0	0.0	-0.121	0.07	
13.0	0.0	0.0	0.0	0.0	-0.102	0.038	
14.0	0.0	0.0	0.0	0.0	-0.067	0.0	
15.0	0.0	0.0	0.0	0.0	-0.029	-0.022	
0.0	0.0	0.0	0.0	0.0	-0.003	-0.057	
1.0	0.0	0.0	0.0	0.0	0.042	-0.083	
2.0	0.0	0.0	0.0	0.0	0.077	-0.105	
3.0	0.0	0.0	0.0	0.0	0.109	-0.115	
4.0	0.0	0.0	0.0	0.0	0.115	-0.112	
5.0	0.0	0.0	0.0	0.0	0.125	-0.105	
6.0	0.0	0.0	0.0	0.0	0.125	-0.099	
7.0	0.0	0.0	0.0	0.0	0.099	-0.073	
8.0	0.0	0.0	0.0	0.0	0.077	-0.038	
9.0	0.0	0.0	0.0	0.0	0.042	-0.016	
10.0	0.0	0.0	0.0	0.0	-0.01	0.019	
11.0	0.0	0.0	0.0	0.0	-0.051	0.048	
12.0	0.0	0.0	0.0	0.0	-0.093	0.083	
13.0	0.0	0.0	0.0	0.0	-0.118	0.096	
14.0	0.0	0.0	0.0	0.0	-0.125	0.086	
15.0	0.0	0.0	0.0	0.0	-0.131	0.08	
0.0	0.0	0.0	0.0	0.0	-0.128	0.067	
1.0	0.0	0.0	0.0	0.0	-0.112	0.038	
2.0	0.0	0.0	0.0	0.0	-0.089	0.003	
3.0	0.0	0.0	0.0	0.0	-0.045	-0.022	
4.0	0.0	0.0	0.0	0.0	-0.01	-0.042	
5.0	0.0	0.0	0.0	0.0	0.026	-0.07	
6.0	0.0	0.0	0.0	0.0	0.086	-0.102	
7.0	0.0	0.0	0.0	0.0	0.115	-0.121	
8.0	0.0	0.0	0.0	0.0	0.125	-0.118	
9.0	0.0	0.0	0.0	0.0	0.137	-0.112	
10.0	0.0	0.0	0.0	0.0	0.125	-0.105	
11.0	0.0	0.0	0.0	0.0	0.105	-0.077	
12.0	0.0	0.0	0.0	0.0	0.073	-0.045	
13.0	0.0	0.0	0.0	0.0	0.051	-0.022	
14.0	0.0	0.0	0.0	0.0	0.01	0.019	
15.0	0.0	0.0	0.0	0.0	-0.029	0.048	
0.0	0.0	0.0	0.0	0.0	-0.067	0.073	
1.0	0.0	0.0	0.0	0.0	-0.115	0.089	
2.0	0.0	0.0	0.0	0.0	-0.128	0.086	
3.0	0.0	0.0	0.0	0.0	-0.134	0.096	
4.0	0.0	0.0	0.0	0.0	-0.15	0.083	
5.0	0.0	0.0	0.0	0.0	-0.128	0.045	
6.0	0.0	0.0	0.0	0.0	-0.08	0.013	
7.0	0.0	0.0	0.0	0.0	-0.042	-0.022	
8.0	0.0	0.0	0.0	0.0	0.0	-0.048	
9.0	0.0	0.0	0.0	0.0	0.051	-0.08	
10.0	0.0	0.0	0.0	0.0	0.089	-0.109	
11.0	0.0	0.0	0.0	0.0	0.115	-0.131	
12.0	0.0	0.0	0.0	0.0	0.121	-0.125	
13.0	0.0	0.0	0.0	0.0	0.118	-0.112	
14.0	0.0	0.0	0.0	0.0	0.121	-0.102	
15.0	0.0	0.0	0.0	0.0	0.099	-0.08	
0.0	0.0	0.0	0.0	0.0	0.067	-0.048	
1.0	0.0	0.0	0.0	0.0	0.035	-0.006	
2.0	0.0	0.0	0.0	0.0	0.0	0.022	
3.0	0.0	0.0	0.0	0.0	-0.035	0.048	
4.0	0.0	0.0	0.0	0.0	-0.086	0.07	
5.0	0.0	0.0	0.0	0.0	-0.112	0.086	
6.0	0.0	0.0	0.0	0.0	-0.128	0.089	
7.0	0.0	0.0	0.0	0.0	-0.128	0.086	
8.0	0.0	0.0	0.0	0.0	-0.131	0.07	
9.0	0.0	0.0	0.0	0.0	-0.109	0.038	
10.0	0.0	0.0	0.0	0.0	-0.077	0.006	
11.0	0.0	0.0	0.0	0.0	-0.032	-0.013	
12.0	0.0	0.0	0.0	0.0	0.0	-0.051	
13.0	0.0	0.0	0.0	0.0	0.035	-0.083	
14.0	0.0	0.0	0.0	0.0	0.077	-0.109	
15.0	0.0	0.0	0.0	0.0	0.105	-0.115	
0.0	0.0	0.0	0.0	0.0	0.134	-0.115	
1.0	0.0	0.0	0.0	0.0	0.147	-0.109	
2.0	0.0	0.0	0.0	0.0	0.141	-0.096	
3.0	0.0	0.0	0.0	0.0	0.118	-0.07	
4.0	0.0	0.0	0.0	0.0	0.067	-0.042	
5.0	0.0	0.0	0.0	0.0	0.026	-0.013	
6.0	0.0	0.0	0.0	0.0	-0.003	0.019	
7.0	0.0	0.0	0.0	0.0	-0.048	0.054	
8.0	0.0	0.0	0.0	0.0	-0.093	0.077	
9.0	0.0	0.0	0.0	0.0	-0.118	0.086	
10.0	0.0	0.0	0.0	0.0	-0.125	0.089	
11.0	0.0	0.0	0.0	0.0	-0.128	0.089	
12.0	0.0	0.0	0.0	0.0	-0.121	0.08	
13.0	0.0	0.0	0.0	0.0	-0.102	0.048	
14.0	0.0	0.0	0.0	0.0	-0.07	0.013	
15.0	0.0	0.0	0.0	0.0	-0.026	-0.01	
0.0	0.0	0.0	0.0	0.0	0.003	-0.051	
1.0	0.0	0.0	0.0	0.0	0.051	-0.083	
2.0	0.0	0.0	0.0	0.0	0.099	-0.112	
3.0	0.0	0.0	0.0	0.0	0.125	-0.121	
4.0	0.0	0.0	0.0	0.0	0.118	-0.121	
5.0	0.0	0.0	0.0	0.0	0.121	-0.112	
6.0	0.0	0.0	0.0	0.0	0.109	-0.109	
7.0	0.0	0.0	0.0	0.0	0.099	-0.089	
8.0	0.0	0.0	0.0	0.0	0.067	-0.051	
9.0	0.0	0.0	0.0	0.0	0.029	-0.019	
10.0	0.0	0.0	0.0	0.0	-0.016	0.01	
11.0	0.0	0.0	0.0	0.0	-0.057	0.048	
12.0	0.0	0.0	0.0	0.0	-0.093	0.077	
13.0	0.0	0.0	0.0	0.0	-0.128	0.096	
14.0	0.0	0.0	0.0	0.0	-0.131	0.099	
15.0	0.0	0.0	0.0	0.0	-0.137	0.099	
0.0	0.0	0.0	0.0	0.0	-0.137	0.08	
1.0	0.0	0.0	0.0	0.0	-0.105	0.051	
2.0	0.0	0.0	0.0	0.0	-0.057	0.013	
3.0	0.0	0.0	0.0	0.0	-0.026	-0.016	
4.0	0.0	0.0	0.0	0.0	0.003	-0.054	
5.0	0.0	0.0	0.0	0.0	0.048	-0.083	
6.0	0.0	0.0	0.0	0.0	0.086	-0.109	
7.0	0.0	0.0	0.0	0.0	0.125	-0.128	
8.0	0.0	0.0	0.0	0.0	0.121	-0.125	
9.0	0.0	0.0	0.0	0.0	0.115	-0.115	
10.0	0.0	0.0	0.0	0.0	0.118	-0.112	
11.0	0.0	0.0	0.0	0.0	0.099	-0.08	
12.0	0.0	0.0	0.0	0.0	0.07	-0.042	
13.0	0.0	0.0	0.0	0.0	0.035	-0.013	
14.0	0.0	0.0	0.0	0.0	0.0	0.026	
15.0	0.0	0.0	0.0	0.0	-0.051	0.057	
0.0	0.0	0.0	0.0	0.0	-0.093	0.089	
1.0	0.0	0.0	0.0	0.0	-0.112	0.102	
2.0	0.0	0.0	0.0	0.0	-0.131	0.105	
3.0	0.0	0.0	0.0	0.0	-0.141	0.083	
4.0	0.0	0.0	0.0	0.0	-0.134	0.073	
5.0	0.0	0.0	0.0	0.0	-0.105	0.048	
6.0	0.0	0.0	0.0	0.0	-0.051	0.0	
7.0	0.0	0.0	0.0	0.0	-0.019	-0.032	
8.0	0.0	0.0	0.0	0.0	0.006	-0.051	
9.0	0.0	0.0	0.0	0.0	0.045	-0.083	
10.0	0.0	0.0	0.0	0.0	0.086	-0.109	
11.0	0.0	0.0	0.0	0.0	0.102	-0.131	
12.0	0.0	0.0	0.0	0.0	0.121	-0.125	
13.0	0.0	0.0	0.0	0.0	0.131	-0.118	
14.0	0.0	0.0	0.0	0.0	0.118	-0.112	
15.0	0.0	0.0	0.0	0.0	0.109	-0.08	
0.0	0.0	0.0	0.0	0.0	0.064	-0.042	
1.0	0.0	0.0	0.0	0.0	0.026	-0.019	
2.0	0.0	0.0	0.0	0.0	-0.01	0.019	
3.0	0.0	0.0	0.0	0.0	-0.048	0.057	
4.0	0.0	0.0	0.0	0.0	-0.089	0.089	
5.0	0.0	0.0	0.0	0.0	-0.105	0.105	
6.0	0.0	0.0	0.0	0.0	-0.121	0.093	
7.0	0.0	0.0	0.0	0.0	-0.141	0.083	
8.0	0.0	0.0	0.0	0.0	-0.137	0.067	
9.0	0.0	0.0	0.0	0.0	-0.128	0.045	
10.0	0.0	0.0	0.0	0.0	-0.083	0.01	
11.0	0.0	0.0	0.0	0.0	-0.032	-0.016	
12.0	0.0	0.0	0.0	0.0	0.006	-0.048	
13.0	0.0	0.0	0.0	0.0	0.048	-0.08	
14.0	0.0	0.0	0.0	0.0	0.077	-0.109	
15.0	0.0	0.0	0.0	0.0	0.102	-0.115	
0.0	0.0	0.0	0.0	0.0	0.118	-0.121	
1.0	0.0	0.0	0.0	0.0	0.134	-0.121	
2.0	0.0	0.0	0.0	0.0	0.144	-0.112	
3.0	0.0	0.0	0.0	0.0	0.125	-0.08	
4.0	0.0	0.0	0.0	0.0	0.086	-0.038	
5.0	0.0	0.0	0.0	0.0	0.054	-0.013	
6.0	0.0	0.0	0.0	0.0	0.019	0.013	
7.0	0.0	0.0	0.0	0.0	-0.029	0.051	
8.0	0.0	0.0	0.0	0.0	-0.086	0.08	
9.0	0.0	0.0	0.0	0.0	-0.125	0.089	
10.0	0.0	0.0	0.0	0.0	-0.131	0.089	
11.0	0.0	0.0	0.0	0.0	-0.134	0.086	
12.0	0.0	0.0	0.0	0.0	-0.15	0.073	
13.0	0.0	0.0	0.0	0.0	-0.137	0.042	
14.0	0.0	0.0	0.0	0.0	-0.08	0.01	
15.0	0.0	0.0	0.0	0.0	-0.026	-0.026	
0.0	0.0	0.0	0.0	0.0	0.006	-0.048	
1.0	0.0	0.0	0.0	0.0	0.042	-0.08	
2.0	0.0	0.0	0.0	0.0	0.083	-0.099	
3.0	0.0	0.0	0.0	0.0	0.118	-0.121	
4.0	0.0	0.0	0.0	0.0	0.137	-0.118	
5.0	0.0	0.0	0.0	0.0	0.141	-0.112	
6.0	0.0	0.0	0.0	0.0	0.141	-0.102	
7.0	0.0	0.0	0.0	0.0	0.128	-0.073	
8.0	0.0	0.0	0.0	0.0	0.073	-0.038	
9.0	0.0	0.0	0.0	0.0	0.026	-0.01	
10.0	0.0	0.0	0.0	0.0	-0.016	0.019	
11.0	0.0	0.0	0.0	0.0	-0.064	0.054	
12.0	0.0	0.0	0.0	0.0	-0.102	0.077	
13.0	0.0	0.0	0.0	0.0	-0.128	0.093	
14.0	0.0	0.0	0.0	0.0	-0.128	0.089	
15.0	0.0	0.0	0.0	0.0	-0.118	0.093	
0.0	0.0	0.0	0.0	0.0	-0.131	0.083	
1.0	0.0	0.0	0.0	0.0	-0.109	0.051	
2.0	0.0	0.0	0.0	0.0	-0.077	0.013	
3.0	0.0	0.0	0.0	0.0	-0.061	-0.022	
4.0	0.0	0.0	0.0	0.0	-0.029	-0.051	
5.0	0.0	0.0	0.0	0.0	0.016	-0.093	
6.0	0.0	0.0	0.0	0.0	0.07	-0.115	
7.0	0.0	0.0	0.0	0.0	0.112	-0.121	
8.0	0.0	0.0	0.0	0.0	0.137	-0.125	
9.0	0.0	0.0	0.0	0.0	0.144	-0.118	
10.0	0.0	0.0	0.0	0.0	0.134	-0.115	
11.0	0.0	0.0	0.0	0.0	0.121	-0.089	
12.0	0.0	0.0	0.0	0.0	0.089	-0.048	
13.0	0.0	0.0	0.0	0.0	0.051	-0.019	
14.0	0.0	0.0	0.0	0.0	0.016	0.01	
15.0	0.0	0.0	0.0	0.0	-0.019	0.048	
0.0	0.0	0.0	0.0	0.0	-0.048	0.083	
1.0	0.0	0.0	0.0	0.0	-0.093	0.096	
2.0	0.0	0.0	0.0	0.0	-0.102	0.083	
3.0	0.0	0.0	0.0	0.0	-0.131	0.093	
4.0	0.0	0.0	0.0	0.0	-0.141	0.086	
5.0	0.0	0.0	0.0	0.0	-0.131	0.038	
6.0	0.0	0.0	0.0	0.0	-0.086	0.003	
7.0	0.0	0.0	0.0	0.0	-0.057	-0.016	
8.0	0.0	0.0	0.0	0.0	-0.026	-0.045	
9.0	0.0	0.0	0.0	0.0	0.006	-0.07	
10.0	0.0	0.0	0.0	0.0	0.045	-0.102	
11.0	0.0	0.0	0.0	0.0	0.08	-0.112	
12.0	0.0	0.0	0.0	0.0	0.115	-0.115	
13.0	0.0	0.0	0.0	0.0	0.141	-0.115	
14.0	0.0	0.0	0.0	0.0	0.153	-0.102	
15.0	0.0	0.0	0.0	0.0	0.115	-0.073	
0.0	0.0	0.0	0.0	0.0	0.089	-0.032	
1.0	0.0	0.0	0.0	0.0	0.061	-0.01	
2.0	0.0	0.0	0.0	0.0	0.01	0.013	
3.0	0.0	0.0	0.0	0.0	-0.051	0.042	
4.0	0.0	0.0	0.0	0.0	-0.102	0.067	
5.0	0.0	0.0	0.0	0.0	-0.134	0.073	
6.0	0.0	0.0	0.0	0.0	-0.147	0.077	
7.0	0.0	0.0	0.0	0.0	-0.128	0.099	
8.0	0.0	0.0	0.0	0.0	-0.131	0.083	
9.0	0.0	0.0	0.0	0.0	-0.121	0.048	
10.0	0.0	0.0	0.0	0.0	-0.083	0.006	
11.0	0.0	0.0	0.0	0.0	-0.057	-0.016	
12.0	0.0	0.0	0.0	0.0	-0.026	-0.042	
13.0	0.0	0.0	0.0	0.0	0.032	-0.083	
14.0	0.0	0.0	0.0	0.0	0.077	-0.109	
15.0	0.0	0.0	0.0	0.0	0.109	-0.125	
0.0	0.0	0.0	0.0	0.0	0.137	-0.118	
1.0	0.0	0.0	0.0	0.0	0.128	-0.125	
2.0	0.0	0.0	0.0	0.0	0.128	-0.112	
3.0	0.0	0.0	0.0	0.0	0.121	-0.086	
4.0	0.0	0.0	0.0	0.0	0.07	-0.045	
5.0	0.0	0.0	0.0	0.0	0.042	-0.022	
6.0	0.0	0.0	0.0	0.0	0.006	0.016	
7.0	0.0	0.0	0.0	0.0	-0.026	0.045	
8.0	0.0	0.0	0.0	0.0	-0.057	0.08	
9.0	0.0	0.0	0.0	0.0	-0.054	0.099	
10.0	0.0	0.0	0.0	0.0	-0.08	0.109	
11.0	0.0	0.0	0.0	0.0	-0.089	0.102	
12.0	0.0	0.0	0.0	0.0	-0.115	0.086	
13.0	0.0	0.0	0.0	0.0	-0.105	0.038	
14.0	0.0	0.0	0.0	0.0	-0.08	-0.003	
15.0	0.0	0.0	0.0	0.0	-0.061	-0.029	
0.0	0.0	0.0	0.0	0.0	-0.042	-0.051	
1.0	0.0	0.0	0.0	0.0	-0.038	-0.083	
2.0	0.0	0.0	0.0	0.0	0.006	-0.105	
3.0	0.0	0.0	0.0	0.0	0.048	-0.118	
4.0	0.0	0.0	0.0	0.0	0.096	-0.115	
5.0	0.0	0.0	0.0	0.0	0.137	-0.105	
6.0	0.0	0.0	0.0	0.0	0.157	-0.096	
7.0	0.0	0.0	0.0	0.0	0.144	-0.08	
8.0	0.0	0.0	0.0	0.0	0.118	-0.045	
9.0	0.0	0.0	0.0	0.0	0.083	-0.016	
10.0	0.0	0.0	0.0	0.0	0.026	0.022	
11.0	0.0	0.0	0.0	0.0	-0.016	0.054	
12.0	0.0	0.0	0.0	0.0	-0.073	0.086	
13.0	0.0	0.0	0.0	0.0	-0.121	0.086	
14.0	0.0	0.0	0.0	0.0	-0.128	0.083	
15.0	0.0	0.0	0.0	0.0	-0.112	0.086	
0.0	0.0	0.0	0.0	0.0	-0.131	0.07	
1.0	0.0	0.0	0.0	0.0	-0.134	0.038	
2.0	0.0	0.0	0.0	0.0	-0.102	0.016	
3.0	0.0	0.0	0.0	0.0	-0.057	-0.026	
4.0	0.0	0.0	0.0	0.0	0.0	-0.045	
5.0	0.0	0.0	0.0	0.0	0.061	-0.07	
6.0	0.0	0.0	0.0	0.0	0.112	-0.093	
7.0	0.0	0.0	0.0	0.0	0.131	-0.118	
8.0	0.0	0.0	0.0	0.0	0.115	-0.125	
9.0	0.0	0.0	0.0	0.0	0.115	-0.118	
10.0	0.0	0.0	0.0	0.0	0.128	-0.105	
11.0	0.0	0.0	0.0	0.0	0.121	-0.083	
12.0	0.0	0.0	0.0	0.0	0.083	-0.045	
13.0	0.0	0.0	0.0	0.0	0.038	-0.026	
14.0	0.0	0.0	0.0	0.0	-0.01	0.003	
15.0	0.0	0.0	0.0	0.0	-0.057	0.048	
0.0	0.0	0.0	0.0	0.0	-0.102	0.08	
1.0	0.0	0.0	0.0	0.0	-0.182	0.093	
2.0	0.0	0.0	0.0	0.0	-0.208	0.093	
3.0	0.0	0.0	0.0	0.0	-0.211	0.089	
4.0	0.0	0.0	0.0	0.0	-0.201	0.086	
5.0	0.0	0.0	0.0	0.0	-0.144	0.042	
6.0	0.0	0.0	0.0	0.0	-0.061	0.013	
7.0	0.0	0.0	0.0	0.0	0.01	-0.006	
8.0	0.0	0.0	0.0	0.0	0.042	-0.042	
9.0	0.0	0.0	0.0	0.0	0.096	-0.07	
10.0	0.0	0.0	0.0	0.0	0.131	-0.109	
11.0	0.0	0.0	0.0	0.0	0.147	-0.115	
12.0	0.0	0.0	0.0	0.0	0.147	-0.115	
13.0	0.0	0.0	0.0	0.0	0.163	-0.109	
14.0	0.0	0.0	0.0	0.0	0.141	-0.109	
15.0	0.0	0.0	0.0	0.0	0.115	-0.073	
0.0	0.0	0.0	0.0	0.0	0.038	-0.061	
1.0	0.0	0.0	0.0	0.0	0.006	-0.038	
2.0	0.0	0.0	0.0	0.0	-0.006	-0.003	
3.0	0.0	0.0	0.0	0.0	-0.019	0.061	
4.0	0.0	0.0	0.0	0.0	-0.073	0.096	
5.0	0.0	0.0	0.0	0.0	-0.099	0.096	
6.0	0.0	0.0	0.0	0.0	-0.112	0.083	
7.0	0.0	0.0	0.0	0.0	-0.134	0.073	
8.0	0.0	0.0	0.0	0.0	-0.125	0.07	
9.0	0.0	0.0	0.0	0.0	-0.07	0.051	
10.0	0.0	0.0	0.0	0.0	-0.029	0.029	
11.0	0.0	0.0	0.0	0.0	-0.013	-0.003	
12.0	0.0	0.0	0.0	0.0	0.013	-0.038	
13.0	0.0	0.0	0.0	0.0	0.029	-0.089	
14.0	0.0	0.0	0.0	0.0	0.083	-0.109	
15.0	0.0	0.0	0.0	0.0	0.141	-0.131	
0.0	0.0	0.0	0.0	0.0	0.128	-0.121	
1.0	0.0	0.0	0.0	0.0	0.131	-0.128	
2.0	0.0	0.0	0.0	0.0	0.153	-0.112	
3.0	0.0	0.0	0.0	0.0	0.121	-0.089	
4.0	0.0	0.0	0.0	0.0	0.054	-0.054	
5.0	0.0	0.0	0.0	0.0	-0.006	-0.019	
6.0	0.0	0.0	0.0	0.0	-0.038	0.022	
7.0	0.0	0.0	0.0	0.0	-0.086	0.054	
8.0	0.0	0.0	0.0	0.0	-0.128	0.077	
9.0	0.0	0.0	0.0	0.0	-0.15	0.089	
10.0	0.0	0.0	0.0	0.0	-0.182	0.099	
11.0	0.0	0.0	0.0	0.0	-0.198	0.099	
12.0	0.0	0.0	0.0	0.0	-0.195	0.073	
13.0	0.0	0.0	0.0	0.0	-0.153	0.048	
14.0	0.0	0.0	0.0	0.0	-0.08	0.01	
15.0	0.0	0.0	0.0	0.0	-0.013	-0.016	
0.0	0.0	0.0	0.0	0.0	0.019	-0.045	
1.0	0.0	0.0	0.0	0.0	0.083	-0.064	
2.0	0.0	0.0	0.0	0.0	0.128	-0.096	
3.0	0.0	0.0	0.0	0.0	0.172	-0.112	
4.0	0.0	0.0	0.0	0.0	0.188	-0.109	
5.0	0.0	0.0	0.0	0.0	0.147	-0.118	
6.0	0.0	0.0	0.0	0.0	0.147	-0.105	
7.0	0.0	0.0	0.0	0.0	0.105	-0.083	
8.0	0.0	0.0	0.0	0.0	0.038	-0.057	
9.0	0.0	0.0	0.0	0.0	-0.022	-0.035	
10.0	0.0	0.0	0.0	0.0	-0.07	0.0	
11.0	0.0	0.0	0.0	0.0	-0.105	0.048	
12.0	0.0	0.0	0.0	0.0	-0.137	0.08	
13.0	0.0	0.0	0.0	0.0	-0.153	0.089	
14.0	0.0	0.0	0.0	0.0	-0.137	0.089	
15.0	0.0	0.0	0.0	0.0	-0.15	0.099	
0.0	0.0	0.0	0.0	0.0	-0.128	0.096	
1.0	0.0	0.0	0.0	0.0	-0.093	0.054	
2.0	0.0	0.0	0.0	0.0	-0.054	0.016	
3.0	0.0	0.0	0.0	0.0	-0.003	-0.003	
4.0	0.0	0.0	0.0	0.0	0.067	-0.048	
5.0	0.0	0.0	0.0	0.0	0.131	-0.08	
6.0	0.0	0.0	0.0	0.0	0.163	-0.121	
7.0	0.0	0.0	0.0	0.0	0.166	-0.137	
8.0	0.0	0.0	0.0	0.0	0.157	-0.128	
9.0	0.0	0.0	0.0	0.0	0.121	-0.128	
10.0	0.0	0.0	0.0	0.0	0.083	-0.112	
11.0	0.0	0.0	0.0	0.0	0.045	-0.089	
12.0	0.0	0.0	0.0	0.0	0.022	-0.057	
13.0	0.0	0.0	0.0	0.0	0.01	-0.026	
14.0	0.0	0.0	0.0	0.0	0.0	0.016	
15.0	0.0	0.0	0.0	0.0	-0.026	0.061	
0.0	0.0	0.0	0.0	0.0	-0.064	0.089	
1.0	0.0	0.0	0.0	0.0	-0.102	0.105	
2.0	0.0	0.0	0.0	0.0	-0.118	0.102	
3.0	0.0	0.0	0.0	0.0	-0.096	0.089	
4.0	0.0	0.0	0.0	0.0	-0.121	0.077	
5.0	0.0	0.0	0.0	0.0	-0.118	0.048	
6.0	0.0	0.0	0.0	0.0	-0.051	0.013	
7.0	0.0	0.0	0.0	0.0	-0.01	-0.013	
8.0	0.0	0.0	0.0	0.0	0.013	-0.045	
9.0	0.0	0.0	0.0	0.0	0.042	-0.086	
10.0	0.0	0.0	0.0	0.0	0.089	-0.102	
11.0	0.0	0.0	0.0	0.0	0.109	-0.121	
12.0	0.0	0.0	0.0	0.0	0.096	-0.121	
13.0	0.0	0.0	0.0	0.0	0.096	-0.125	
14.0	0.0	0.0	0.0	0.0	0.112	-0.105	
15.0	0.0	0.0	0.0	0.0	0.099	-0.08	
0.0	0.0	0.0	0.0	0.0	0.054	-0.035	
1.0	0.0	0.0	0.0	0.0	0.038	-0.013	
2.0	0.0	0.0	0.0	0.0	0.019	0.019	
3.0	0.0	0.0	0.0	0.0	-0.029	0.061	
4.0	0.0	0.0	0.0	0.0	-0.07	0.086	
5.0	0.0	0.0	0.0	0.0	-0.115	0.096	
6.0	0.0	0.0	0.0	0.0	-0.141	0.089	
7.0	0.0	0.0	0.0	0.0	-0.134	0.083	
8.0	0.0	0.0	0.0	0.0	-0.125	0.064	
9.0	0.0	0.0	0.0	0.0	-0.118	0.042	
10.0	0.0	0.0	0.0	0.0	-0.086	0.006	
11.0	0.0	0.0	0.0	0.0	-0.048	-0.022	
12.0	0.0	0.0	0.0	0.0	-0.029	-0.057	
13.0	0.0	0.0	0.0	0.0	-0.003	-0.089	
14.0	0.0	0.0	0.0	0.0	0.057	-0.105	
15.0	0.0	0.0	0.0	0.0	0.105	-0.115	
0.0	0.0	0.0	0.0	0.0	0.134	-0.115	
1.0	0.0	0.0	0.0	0.0	0.153	-0.118	
2.0	0.0	0.0	0.0	0.0	0.144	-0.115	
3.0	0.0	0.0	0.0	0.0	0.121	-0.073	
4.0	0.0	0.0	0.0	0.0	0.099	-0.032	
5.0	0.0	0.0	0.0	0.0	0.064	-0.006	
6.0	0.0	0.0	0.0	0.0	0.026	0.019	
7.0	0.0	0.0	0.0	0.0	-0.032	0.051	
8.0	0.0	0.0	0.0	0.0	-0.057	0.086	
9.0	0.0	0.0	0.0	0.0	-0.102	0.093	
10.0	0.0	0.0	0.0	0.0	-0.121	0.083	
11.0	0.0	0.0	0.0	0.0	-0.115	0.086	
12.0	0.0	0.0	0.0	0.0	-0.115	0.077	
13.0	0.0	0.0	0.0	0.0	-0.125	0.042	
14.0	0.0	0.0	0.0	0.0	-0.125	0.003	
15.0	0.0	0.0	0.0	0.0	-0.105	-0.038	
0.0	0.0	0.0	0.0	0.0	-0.042	-0.051	
1.0	0.0	0.0	0.0	0.0	0.013	-0.083	
2.0	0.0	0.0	0.0	0.0	0.064	-0.096	
3.0	0.0	0.0	0.0	0.0	0.086	-0.121	
4.0	0.0	0.0	0.0	0.0	0.115	-0.115	
5.0	0.0	0.0	0.0	0.0	0.125	-0.112	
6.0	0.0	0.0	0.0	0.0	0.144	-0.109	
7.0	0.0	0.0	0.0	0.0	0.121	-0.08	
8.0	0.0	0.0	0.0	0.0	0.077	-0.051	
9.0	0.0	0.0	0.0	0.0	0.019	-0.016	
10.0	0.0	0.0	0.0	0.0	0.0	0.026	
11.0	0.0	0.0	0.0	0.0	-0.026	0.061	
12.0	0.0	0.0	0.0	0.0	-0.057	0.089	
13.0	0.0	0.0	0.0	0.0	-0.08	0.096	
14.0	0.0	0.0	0.0	0.0	-0.096	0.093	
15.0	0.0	0.0	0.0	0.0	-0.131	0.07	
0.0	0.0	0.0	0.0	0.0	-0.144	0.054	
1.0	0.0	0.0	0.0	0.0	-0.112	0.035	
2.0	0.0	0.0	0.0	0.0	-0.08	-0.003	
3.0	0.0	0.0	0.0	0.0	-0.042	-0.029	
4.0	0.0	0.0	0.0	0.0	0.006	-0.042	
5.0	0.0	0.0	0.0	0.0	0.045	-0.07	
6.0	0.0	0.0	0.0	0.0	0.086	-0.105	
7.0	0.0	0.0	0.0	0.0	0.125	-0.115	
8.0	0.0	0.0	0.0	0.0	0.141	-0.112	
9.0	0.0	0.0	0.0	0.0	0.144	-0.112	
10.0	0.0	0.0	0.0	0.0	0.147	-0.102	
11.0	0.0	0.0	0.0	0.0	0.134	-0.073	
12.0	0.0	0.0	0.0	0.0	0.102	-0.029	
13.0	0.0	0.0	0.0	0.0	0.064	-0.006	
14.0	0.0	0.0	0.0	0.0	0.003	0.016	
15.0	0.0	0.0	0.0	0.0	-0.035	0.042	
0.0	0.0	0.0	0.0	0.0	-0.083	0.08	
1.0	0.0	0.0	0.0	0.0	-0.125	0.089	
2.0	0.0	0.0	0.0	0.0	-0.16	0.08	
3.0	0.0	0.0	0.0	0.0	-0.185	0.086	
4.0	0.0	0.0	0.0	0.0	-0.195	0.073	
5.0	0.0	0.0	0.0	0.0	-0.188	0.051	
6.0	0.0	0.0	0.0	0.0	-0.166	0.01	
7.0	0.0	0.0	0.0	0.0	-0.105	-0.022	
8.0	0.0	0.0	0.0	0.0	-0.022	-0.038	
9.0	0.0	0.0	0.0	0.0	0.061	-0.073	
10.0	0.0	0.0	0.0	0.0	0.089	-0.112	
11.0	0.0	0.0	0.0	0.0	0.121	-0.128	
12.0	0.0	0.0	0.0	0.0	0.153	-0.125	
13.0	0.0	0.0	0.0	0.0	0.166	-0.121	
14.0	0.0	0.0	0.0	0.0	0.153	-0.109	
15.0	0.0	0.0	0.0	0.0	0.137	-0.08	
0.0	0.0	0.0	0.0	0.0	0.102	-0.048	
1.0	0.0	0.0	0.0	0.0	0.064	-0.013	
2.0	0.0	0.0	0.0	0.0	0.029	0.019	
3.0	0.0	0.0	0.0	0.0	-0.022	0.048	
4.0	0.0	0.0	0.0	0.0	-0.077	0.08	
5.0	0.0	0.0	0.0	0.0	-0.109	0.099	
6.0	0.0	0.0	0.0	0.0	-0.131	0.099	
7.0	0.0	0.0	0.0	0.0	-0.137	0.102	
8.0	0.0	0.0	0.0	0.0	-0.169	0.073	
9.0	0.0	0.0	0.0	0.0	-0.137	0.038	
10.0	0.0	0.0	0.0	0.0	-0.077	0.016	
11.0	0.0	0.0	0.0	0.0	-0.029	-0.01	
12.0	0.0	0.0	0.0	0.0	0.006	-0.054	
13.0	0.0	0.0	0.0	0.0	0.057	-0.089	
14.0	0.0	0.0	0.0	0.0	0.093	-0.115	
15.0	0.0	0.0	0.0	0.0	0.109	-0.121	
0.0	0.0	0.0	0.0	0.0	0.112	-0.118	
1.0	0.0	0.0	0.0	0.0	0.121	-0.102	
2.0	0.0	0.0	0.0	0.0	0.125	-0.105	
3.0	0.0	0.0	0.0	0.0	0.099	-0.083	
4.0	0.0	0.0	0.0	0.0	0.067	-0.035	
5.0	0.0	0.0	0.0	0.0	0.019	-0.016	
6.0	0.0	0.0	0.0	0.0	-0.006	0.003	
7.0	0.0	0.0	0.0	0.0	-0.042	0.048	
8.0	0.0	0.0	0.0	0.0	-0.093	0.077	
9.0	0.0	0.0	0.0	0.0	-0.121	0.086	
10.0	0.0	0.0	0.0	0.0	-0.128	0.089	
11.0	0.0	0.0	0.0	0.0	-0.115	0.089	
12.0	0.0	0.0	0.0	0.0	-0.125	0.08	
13.0	0.0	0.0	0.0	0.0	-0.102	0.048	
14.0	0.0	0.0	0.0	0.0	-0.061	0.013	
15.0	0.0	0.0	0.0	0.0	-0.019	-0.01	
0.0	0.0	0.0	0.0	0.0	0.013	-0.038	
1.0	0.0	0.0	0.0	0.0	0.061	-0.08	
2.0	0.0	0.0	0.0	0.0	0.089	-0.112	
3.0	0.0	0.0	0.0	0.0	0.118	-0.118	
4.0	0.0	0.0	0.0	0.0	0.131	-0.121	
5.0	0.0	0.0	0.0	0.0	0.112	-0.118	
6.0	0.0	0.0	0.0	0.0	0.118	-0.112	
7.0	0.0	0.0	0.0	0.0	0.112	-0.08	
8.0	0.0	0.0	0.0	0.0	0.057	-0.051	
9.0	0.0	0.0	0.0	0.0	0.029	-0.016	
10.0	0.0	0.0	0.0	0.0	-0.006	0.019	
11.0	0.0	0.0	0.0	0.0	-0.048	0.054	
12.0	0.0	0.0	0.0	0.0	-0.105	0.099	
13.0	0.0	0.0	0.0	0.0	-0.128	0.102	
14.0	0.0	0.0	0.0	0.0	-0.134	0.089	
15.0	0.0	0.0	0.0	0.0	-0.128	0.086	
0.0	0.0	0.0	0.0	0.0	-0.128	0.077	
1.0	0.0	0.0	0.0	0.0	-0.102	0.045	
2.0	0.0	0.0	0.0	0.0	-0.067	0.0	
3.0	0.0	0.0	0.0	0.0	-0.029	-0.026	
4.0	0.0	0.0	0.0	0.0	0.003	-0.048	
5.0	0.0	0.0	0.0	0.0	0.038	-0.083	
6.0	0.0	0.0	0.0	0.0	0.089	-0.115	
7.0	0.0	0.0	0.0	0.0	0.112	-0.131	
8.0	0.0	0.0	0.0	0.0	0.112	-0.125	
9.0	0.0	0.0	0.0	0.0	0.134	-0.109	
10.0	0.0	0.0	0.0	0.0	0.147	-0.105	
11.0	0.0	0.0	0.0	0.0	0.121	-0.086	
12.0	0.0	0.0	0.0	0.0	0.083	-0.045	
13.0	0.0	0.0	0.0	0.0	0.054	0.0	
14.0	0.0	0.0	0.0	0.0	0.029	0.022	
15.0	0.0	0.0	0.0	0.0	-0.042	0.045	
0.0	0.0	0.0	0.0	0.0	-0.093	0.073	
1.0	0.0	0.0	0.0	0.0	-0.115	0.099	
2.0	0.0	0.0	0.0	0.0	-0.141	0.099	
3.0	0.0	0.0	0.0	0.0	-0.147	0.105	
4.0	0.0	0.0	0.0	0.0	-0.144	0.083	
5.0	0.0	0.0	0.0	0.0	-0.125	0.054	
6.0	0.0	0.0	0.0	0.0	-0.089	0.016	
7.0	0.0	0.0	0.0	0.0	-0.054	-0.022	
8.0	0.0	0.0	0.0	0.0	-0.026	-0.057	
9.0	0.0	0.0	0.0	0.0	0.035	-0.077	
10.0	0.0	0.0	0.0	0.0	0.073	-0.112	
11.0	0.0	0.0	0.0	0.0	0.086	-0.137	
12.0	0.0	0.0	0.0	0.0	0.102	-0.141	
13.0	0.0	0.0	0.0	0.0	0.125	-0.118	
14.0	0.0	0.0	0.0	0.0	0.125	-0.105	
15.0	0.0	0.0	0.0	0.0	0.131	-0.077	
0.0	0.0	0.0	0.0	0.0	0.077	-0.061	
1.0	0.0	0.0	0.0	0.0	0.038	-0.032	
2.0	0.0	0.0	0.0	0.0	-0.003	0.01	
3.0	0.0	0.0	0.0	0.0	-0.026	0.064	
4.0	0.0	0.0	0.0	0.0	-0.07	0.083	
5.0	0.0	0.0	0.0	0.0	-0.099	0.099	
6.0	0.0	0.0	0.0	0.0	-0.112	0.099	
7.0	0.0	0.0	0.0	0.0	-0.121	0.099	
8.0	0.0	0.0	0.0	0.0	-0.128	0.08	
9.0	0.0	0.0	0.0	0.0	-0.109	0.067	
10.0	0.0	0.0	0.0	0.0	-0.067	0.022	
11.0	0.0	0.0	0.0	0.0	-0.026	-0.01	
12.0	0.0	0.0	0.0	0.0	0.016	-0.038	
13.0	0.0	0.0	0.0	0.0	0.064	-0.08	
14.0	0.0	0.0	0.0	0.0	0.109	-0.115	
15.0	0.0	0.0	0.0	0.0	0.125	-0.128	
0.0	0.0	0.0	0.0	0.0	0.121	-0.118	
1.0	0.0	0.0	0.0	0.0	0.125	-0.121	
2.0	0.0	0.0	0.0	0.0	0.141	-0.125	
3.0	0.0	0.0	0.0	0.0	0.112	-0.089	
4.0	0.0	0.0	0.0	0.0	0.057	-0.051	
5.0	0.0	0.0	0.0	0.0	0.026	-0.026	
6.0	0.0	0.0	0.0	0.0	0.003	0.016	
7.0	0.0	0.0	0.0	0.0	-0.073	0.054	
8.0	0.0	0.0	0.0	0.0	-0.125	0.08	
9.0	0.0	0.0	0.0	0.0	-0.125	0.105	
10.0	0.0	0.0	0.0	0.0	-0.118	0.105	
11.0	0.0	0.0	0.0	0.0	-0.169	0.093	
12.0	0.0	0.0	0.0	0.0	-0.192	0.067	
13.0	0.0	0.0	0.0	0.0	-0.141	0.045	
14.0	0.0	0.0	0.0	0.0	-0.083	0.003	
15.0	0.0	0.0	0.0	0.0	-0.051	-0.022	
0.0	0.0	0.0	0.0	0.0	-0.006	-0.054	
1.0	0.0	0.0	0.0	0.0	0.054	-0.07	
2.0	0.0	0.0	0.0	0.0	0.118	-0.093	
3.0	0.0	0.0	0.0	0.0	0.166	-0.118	
4.0	0.0	0.0	0.0	0.0	0.182	-0.121	
5.0	0.0	0.0	0.0	0.0	0.169	-0.125	
6.0	0.0	0.0	0.0	0.0	0.166	-0.115	
7.0	0.0	0.0	0.0	0.0	0.141	-0.08	
8.0	0.0	0.0	0.0	0.0	0.105	-0.038	
9.0	0.0	0.0	0.0	0.0	0.029	-0.016	
10.0	0.0	0.0	0.0	0.0	-0.057	0.006	
11.0	0.0	0.0	0.0	0.0	-0.118	0.048	
12.0	0.0	0.0	0.0	0.0	-0.144	0.086	
13.0	0.0	0.0	0.0	0.0	-0.157	0.096	
14.0	0.0	0.0	0.0	0.0	-0.153	0.089	
15.0	0.0	0.0	0.0	0.0	-0.16	0.07	
0.0	0.0	0.0	0.0	0.0	-0.153	0.061	
1.0	0.0	0.0	0.0	0.0	-0.102	0.038	
2.0	0.0	0.0	0.0	0.0	-0.057	0.006	
3.0	0.0	0.0	0.0	0.0	-0.016	-0.01	
4.0	0.0	0.0	0.0	0.0	0.016	-0.054	
5.0	0.0	0.0	0.0	0.0	0.054	-0.077	
6.0	0.0	0.0	0.0	0.0	0.086	-0.096	
7.0	0.0	0.0	0.0	0.0	0.118	-0.118	
8.0	0.0	0.0	0.0	0.0	0.147	-0.112	
9.0	0.0	0.0	0.0	0.0	0.141	-0.109	
10.0	0.0	0.0	0.0	0.0	0.147	-0.102	
11.0	0.0	0.0	0.0	0.0	0.131	-0.077	
12.0	0.0	0.0	0.0	0.0	0.077	-0.042	
13.0	0.0	0.0	0.0	0.0	0.048	-0.016	
14.0	0.0	0.0	0.0	0.0	-0.003	0.013	
15.0	0.0	0.0	0.0	0.0	-0.029	0.057	
0.0	0.0	0.0	0.0	0.0	-0.057	0.086	
1.0	0.0	0.0	0.0	0.0	-0.057	0.099	
2.0	0.0	0.0	0.0	0.0	-0.073	0.109	
3.0	0.0	0.0	0.0	0.0	-0.099	0.102	
4.0	0.0	0.0	0.0	0.0	-0.115	0.08	
5.0	0.0	0.0	0.0	0.0	-0.112	0.051	
6.0	0.0	0.0	0.0	0.0	-0.125	-0.003	
7.0	0.0	0.0	0.0	0.0	-0.121	-0.057	
8.0	0.0	0.0	0.0	0.0	-0.115	-0.08	
9.0	0.0	0.0	0.0	0.0	-0.08	-0.112	
10.0	0.0	0.0	0.0	0.0	0.022	-0.121	
11.0	0.0	0.0	0.0	0.0	0.096	-0.112	
12.0	0.0	0.0	0.0	0.0	0.137	-0.109	
13.0	0.0	0.0	0.0	0.0	0.131	-0.109	
14.0	0.0	0.0	0.0	0.0	0.131	-0.112	
15.0	0.0	0.0	0.0	0.0	0.134	-0.093	
0.0	0.0	0.0	0.0	0.0	0.109	-0.048	
1.0	0.0	0.0	0.0	0.0	0.067	-0.016	
2.0	0.0	0.0	0.0	0.0	0.032	0.016	
3.0	0.0	0.0	0.0	0.0	-0.013	0.061	
4.0	0.0	0.0	0.0	0.0	-0.064	0.086	
5.0	0.0	0.0	0.0	0.0	-0.109	0.096	
6.0	0.0	0.0	0.0	0.0	-0.125	0.102	
7.0	0.0	0.0	0.0	0.0	-0.128	0.102	
8.0	0.0	0.0	0.0	0.0	-0.128	0.096	
9.0	0.0	0.0	0.0	0.0	-0.096	0.061	
10.0	0.0	0.0	0.0	0.0	-0.057	0.019	
11.0	0.0	0.0	0.0	0.0	-0.035	-0.013	
12.0	0.0	0.0	0.0	0.0	0.0	-0.051	
13.0	0.0	0.0	0.0	0.0	0.035	-0.102	
14.0	0.0	0.0	0.0	0.0	0.099	-0.115	
15.0	0.0	0.0	0.0	0.0	0.118	-0.134	
0.0	0.0	0.0	0.0	0.0	0.109	-0.134	
1.0	0.0	0.0	0.0	0.0	0.07	-0.134	
2.0	0.0	0.0	0.0	0.0	0.086	-0.128	
3.0	0.0	0.0	0.0	0.0	0.099	-0.093	
4.0	0.0	0.0	0.0	0.0	0.08	-0.048	
5.0	0.0	0.0	0.0	0.0	0.051	-0.01	
6.0	0.0	0.0	0.0	0.0	0.016	0.035	
7.0	0.0	0.0	0.0	0.0	-0.026	0.067	
8.0	0.0	0.0	0.0	0.0	-0.077	0.086	
9.0	0.0	0.0	0.0	0.0	-0.109	0.102	
10.0	0.0	0.0	0.0	0.0	-0.128	0.102	
11.0	0.0	0.0	0.0	0.0	-0.128	0.096	
12.0	0.0	0.0	0.0	0.0	-0.137	0.077	
13.0	0.0	0.0	0.0	0.0	-0.121	0.045	
14.0	0.0	0.0	0.0	0.0	-0.077	0.01	
15.0	0.0	0.0	0.0	0.0	-0.032	-0.013	
0.0	0.0	0.0	0.0	0.0	0.016	-0.042	
1.0	0.0	0.0	0.0	0.0	0.057	-0.083	
2.0	0.0	0.0	0.0	0.0	0.096	-0.105	
3.0	0.0	0.0	0.0	0.0	0.125	-0.115	
4.0	0.0	0.0	0.0	0.0	0.141	-0.121	
5.0	0.0	0.0	0.0	0.0	0.147	-0.112	
6.0	0.0	0.0	0.0	0.0	0.153	-0.115	
7.0	0.0	0.0	0.0	0.0	0.105	-0.083	
8.0	0.0	0.0	0.0	0.0	0.054	-0.051	
9.0	0.0	0.0	0.0	0.0	0.042	-0.022	
10.0	0.0	0.0	0.0	0.0	-0.01	0.006	
11.0	0.0	0.0	0.0	0.0	-0.064	0.038	
12.0	0.0	0.0	0.0	0.0	-0.128	0.083	
13.0	0.0	0.0	0.0	0.0	-0.176	0.089	
14.0	0.0	0.0	0.0	0.0	-0.182	0.089	
15.0	0.0	0.0	0.0	0.0	-0.15	0.093	
0.0	0.0	0.0	0.0	0.0	-0.128	0.08	
1.0	0.0	0.0	0.0	0.0	-0.099	0.054	
2.0	0.0	0.0	0.0	0.0	-0.051	0.016	
3.0	0.0	0.0	0.0	0.0	-0.022	-0.006	
4.0	0.0	0.0	0.0	0.0	0.0	-0.042	
5.0	0.0	0.0	0.0	0.0	0.048	-0.073	
6.0	0.0	0.0	0.0	0.0	0.112	-0.115	
7.0	0.0	0.0	0.0	0.0	0.147	-0.134	
8.0	0.0	0.0	0.0	0.0	0.147	-0.128	
9.0	0.0	0.0	0.0	0.0	0.134	-0.125	
10.0	0.0	0.0	0.0	0.0	0.131	-0.109	
11.0	0.0	0.0	0.0	0.0	0.121	-0.08	
12.0	0.0	0.0	0.0	0.0	0.102	-0.035	
13.0	0.0	0.0	0.0	0.0	0.061	-0.006	
14.0	0.0	0.0	0.0	0.0	0.01	0.032	
15.0	0.0	0.0	0.0	0.0	-0.042	0.064	
0.0	0.0	0.0	0.0	0.0	-0.086	0.08	
1.0	0.0	0.0	0.0	0.0	-0.141	0.083	
2.0	0.0	0.0	0.0	0.0	-0.211	0.054	
3.0	0.0	0.0	0.0	0.0	-0.198	0.057	
4.0	0.0	0.0	0.0	0.0	-0.182	0.061	
5.0	0.0	0.0	0.0	0.0	-0.112	0.051	
6.0	0.0	0.0	0.0	0.0	-0.07	0.01	
7.0	0.0	0.0	0.0	0.0	-0.038	-0.006	
8.0	0.0	0.0	0.0	0.0	-0.003	-0.032	
9.0	0.0	0.0	0.0	0.0	0.035	-0.077	
10.0	0.0	0.0	0.0	0.0	0.086	-0.096	
11.0	0.0	0.0	0.0	0.0	0.131	-0.115	
12.0	0.0	0.0	0.0	0.0	0.147	-0.121	
13.0	0.0	0.0	0.0	0.0	0.163	-0.115	
14.0	0.0	0.0	0.0	0.0	0.153	-0.112	
15.0	0.0	0.0	0.0	0.0	0.128	-0.083	
0.0	0.0	0.0	0.0	0.0	0.089	-0.029	
1.0	0.0	0.0	0.0	0.0	0.061	0.003	
2.0	0.0	0.0	0.0	0.0	0.029	0.029	
3.0	0.0	0.0	0.0	0.0	-0.006	0.067	
4.0	0.0	0.0	0.0	0.0	-0.048	0.105	
5.0	0.0	0.0	0.0	0.0	-0.064	0.105	
6.0	0.0	0.0	0.0	0.0	-0.067	0.118	
7.0	0.0	0.0	0.0	0.0	-0.125	0.096	
8.0	0.0	0.0	0.0	0.0	-0.182	0.07	
9.0	0.0	0.0	0.0	0.0	-0.179	0.019	
10.0	0.0	0.0	0.0	0.0	-0.16	-0.022	
11.0	0.0	0.0	0.0	0.0	-0.185	-0.073	
12.0	0.0	0.0	0.0	0.0	-0.125	-0.093	
13.0	0.0	0.0	0.0	0.0	-0.042	-0.134	
14.0	0.0	0.0	0.0	0.0	0.045	-0.128	
15.0	0.0	0.0	0.0	0.0	0.141	-0.105	
0.0	0.0	0.0	0.0	0.0	0.179	-0.109	
1.0	0.0	0.0	0.0	0.0	0.182	-0.109	
2.0	0.0	0.0	0.0	0.0	0.166	-0.109	
3.0	0.0	0.0	0.0	0.0	0.141	-0.073	
4.0	0.0	0.0	0.0	0.0	0.105	-0.035	
5.0	0.0	0.0	0.0	0.0	0.077	0.003	
6.0	0.0	0.0	0.0	0.0	0.029	0.035	
7.0	0.0	0.0	0.0	0.0	-0.013	0.067	
8.0	0.0	0.0	0.0	0.0	-0.061	0.093	
9.0	0.0	0.0	0.0	0.0	-0.073	0.102	
10.0	0.0	0.0	0.0	0.0	-0.083	0.105	
11.0	0.0	0.0	0.0	0.0	-0.15	0.105	
12.0	0.0	0.0	0.0	0.0	-0.157	0.089	
13.0	0.0	0.0	0.0	0.0	-0.115	0.064	
14.0	0.0	0.0	0.0	0.0	-0.061	0.01	
15.0	0.0	0.0	0.0	0.0	-0.022	-0.022	
0.0	0.0	0.0	0.0	0.0	-0.032	-0.073	
1.0	0.0	0.0	0.0	0.0	0.022	-0.102	
2.0	0.0	0.0	0.0	0.0	0.105	-0.102	
3.0	0.0	0.0	0.0	0.0	0.128	-0.128	
4.0	0.0	0.0	0.0	0.0	0.121	-0.144	
5.0	0.0	0.0	0.0	0.0	0.089	-0.121	
6.0	0.0	0.0	0.0	0.0	0.038	-0.128	
7.0	0.0	0.0	0.0	0.0	0.048	-0.089	
8.0	0.0	0.0	0.0	0.0	0.045	-0.038	
9.0	0.0	0.0	0.0	0.0	0.019	-0.013	
10.0	0.0	0.0	0.0	0.0	0.022	0.022	
11.0	0.0	0.0	0.0	0.0	-0.026	0.057	
12.0	0.0	0.0	0.0	0.0	-0.073	0.089	
13.0	0.0	0.0	0.0	0.0	-0.118	0.093	
14.0	0.0	0.0	0.0	0.0	-0.128	0.093	
15.0	0.0	0.0	0.0	0.0	-0.121	0.096	
0.0	0.0	0.0	0.0	0.0	-0.125	0.08	
1.0	0.0	0.0	0.0	0.0	-0.093	0.061	
2.0	0.0	0.0	0.0	0.0	-0.064	0.01	
3.0	0.0	0.0	0.0	0.0	-0.016	-0.016	
4.0	0.0	0.0	0.0	0.0	0.01	-0.048	
5.0	0.0	0.0	0.0	0.0	0.054	-0.083	
6.0	0.0	0.0	0.0	0.0	0.096	-0.105	
7.0	0.0	0.0	0.0	0.0	0.131	-0.131	
8.0	0.0	0.0	0.0	0.0	0.157	-0.121	
9.0	0.0	0.0	0.0	0.0	0.144	-0.118	
10.0	0.0	0.0	0.0	0.0	0.125	-0.099	
11.0	0.0	0.0	0.0	0.0	0.105	-0.08	
12.0	0.0	0.0	0.0	0.0	0.07	-0.038	
13.0	0.0	0.0	0.0	0.0	0.022	-0.013	
14.0	0.0	0.0	0.0	0.0	-0.054	0.01	
15.0	0.0	0.0	0.0	0.0	-0.08	0.054	
0.0	0.0	0.0	0.0	0.0	-0.089	0.086	
1.0	0.0	0.0	0.0	0.0	-0.112	0.093	
2.0	0.0	0.0	0.0	0.0	-0.128	0.089	
3.0	0.0	0.0	0.0	0.0	-0.137	0.089	
4.0	0.0	0.0	0.0	0.0	-0.137	0.077	
5.0	0.0	0.0	0.0	0.0	-0.102	0.048	
6.0	0.0	0.0	0.0	0.0	-0.064	0.0	
7.0	0.0	0.0	0.0	0.0	-0.038	-0.026	
8.0	0.0	0.0	0.0	0.0	-0.003	-0.051	
9.0	0.0	0.0	0.0	0.0	0.048	-0.08	
10.0	0.0	0.0	0.0	0.0	0.086	-0.105	
11.0	0.0	0.0	0.0	0.0	0.125	-0.118	
12.0	0.0	0.0	0.0	0.0	0.131	-0.118	
13.0	0.0	0.0	0.0	0.0	0.141	-0.112	
14.0	0.0	0.0	0.0	0.0	0.153	-0.105	
15.0	0.0	0.0	0.0	0.0	0.131	-0.086	
0.0	0.0	0.0	0.0	0.0	0.086	-0.042	
1.0	0.0	0.0	0.0	0.0	0.057	-0.006	
2.0	0.0	0.0	0.0	0.0	0.022	0.016	
3.0	0.0	0.0	0.0	0.0	-0.083	0.045	
4.0	0.0	0.0	0.0	0.0	-0.083	0.093	
5.0	0.0	0.0	0.0	0.0	-0.109	0.109	
6.0	0.0	0.0	0.0	0.0	-0.141	0.102	
7.0	0.0	0.0	0.0	0.0	-0.192	0.089	
8.0	0.0	0.0	0.0	0.0	-0.172	0.08	
9.0	0.0	0.0	0.0	0.0	-0.144	0.045	
10.0	0.0	0.0	0.0	0.0	-0.115	-0.01	
11.0	0.0	0.0	0.0	0.0	-0.096	-0.051	
12.0	0.0	0.0	0.0	0.0	-0.016	-0.061	
13.0	0.0	0.0	0.0	0.0	0.045	-0.083	
14.0	0.0	0.0	0.0	0.0	0.099	-0.096	
15.0	0.0	0.0	0.0	0.0	0.125	-0.115	
0.0	0.0	0.0	0.0	0.0	0.141	-0.125	
1.0	0.0	0.0	0.0	0.0	0.176	-0.115	
2.0	0.0	0.0	0.0	0.0	0.16	-0.109	
3.0	0.0	0.0	0.0	0.0	0.141	-0.086	
4.0	0.0	0.0	0.0	0.0	0.077	-0.051	
5.0	0.0	0.0	0.0	0.0	0.061	-0.01	
6.0	0.0	0.0	0.0	0.0	0.038	0.032	
7.0	0.0	0.0	0.0	0.0	-0.003	0.077	
8.0	0.0	0.0	0.0	0.0	-0.038	0.105	
9.0	0.0	0.0	0.0	0.0	-0.112	0.102	
10.0	0.0	0.0	0.0	0.0	-0.121	0.086	
11.0	0.0	0.0	0.0	0.0	-0.15	0.067	
12.0	0.0	0.0	0.0	0.0	-0.188	0.048	
13.0	0.0	0.0	0.0	0.0	-0.141	0.032	
14.0	0.0	0.0	0.0	0.0	-0.096	-0.016	
15.0	0.0	0.0	0.0	0.0	-0.051	-0.038	
0.0	0.0	0.0	0.0	0.0	-0.013	-0.051	
1.0	0.0	0.0	0.0	0.0	0.01	-0.093	
2.0	0.0	0.0	0.0	0.0	0.054	-0.102	
3.0	0.0	0.0	0.0	0.0	0.057	-0.121	
4.0	0.0	0.0	0.0	0.0	0.125	-0.112	
5.0	0.0	0.0	0.0	0.0	0.188	-0.093	
6.0	0.0	0.0	0.0	0.0	0.192	-0.08	
7.0	0.0	0.0	0.0	0.0	0.16	-0.064	
8.0	0.0	0.0	0.0	0.0	0.073	-0.032	
9.0	0.0	0.0	0.0	0.0	0.035	0.0	
10.0	0.0	0.0	0.0	0.0	0.029	0.026	
11.0	0.0	0.0	0.0	0.0	-0.01	0.061	
12.0	0.0	0.0	0.0	0.0	-0.089	0.077	
13.0	0.0	0.0	0.0	0.0	-0.153	0.08	
14.0	0.0	0.0	0.0	0.0	-0.208	0.064	
15.0	0.0	0.0	0.0	0.0	-0.208	0.064	
0.0	0.0	0.0	0.0	0.0	-0.198	0.067	
1.0	0.0	0.0	0.0	0.0	-0.125	0.051	
2.0	0.0	0.0	0.0	0.0	-0.073	0.013	
3.0	0.0	0.0	0.0	0.0	-0.038	-0.016	
4.0	0.0	0.0	0.0	0.0	0.01	-0.042	
5.0	0.0	0.0	0.0	0.0	0.109	-0.07	
6.0	0.0	0.0	0.0	0.0	0.169	-0.089	
7.0	0.0	0.0	0.0	0.0	0.198	-0.08	
8.0	0.0	0.0	0.0	0.0	0.172	-0.099	
9.0	0.0	0.0	0.0	0.0	0.169	-0.109	
10.0	0.0	0.0	0.0	0.0	0.134	-0.128	
11.0	0.0	0.0	0.0	0.0	0.01	-0.137	
12.0	0.0	0.0	0.0	0.0	-0.029	-0.099	
13.0	0.0	0.0	0.0	0.0	0.035	-0.029	
14.0	0.0	0.0	0.0	0.0	0.013	0.026	
15.0	0.0	0.0	0.0	0.0	-0.057	0.045	
0.0	0.0	0.0	0.0	0.0	-0.102	0.073	
1.0	0.0	0.0	0.0	0.0	-0.172	0.086	
2.0	0.0	0.0	0.0	0.0	-0.16	0.08	
3.0	0.0	0.0	0.0	0.0	-0.128	0.083	
4.0	0.0	0.0	0.0	0.0	-0.134	0.089	
5.0	0.0	0.0	0.0	0.0	-0.115	0.061	
6.0	0.0	0.0	0.0	0.0	-0.061	0.019	
7.0	0.0	0.0	0.0	0.0	0.01	-0.01	
8.0	0.0	0.0	0.0	0.0	0.022	-0.032	
9.0	0.0	0.0	0.0	0.0	0.054	-0.077	
10.0	0.0	0.0	0.0	0.0	0.102	-0.105	
11.0	0.0	0.0	0.0	0.0	0.141	-0.118	
12.0	0.0	0.0	0.0	0.0	0.153	-0.099	
13.0	0.0	0.0	0.0	0.0	0.089	-0.121	
14.0	0.0	0.0	0.0	0.0	0.15	-0.099	
15.0	0.0	0.0	0.0	0.0	0.125	-0.061	
0.0	0.0	0.0	0.0	0.0	0.077	-0.013	
1.0	0.0	0.0	0.0	0.0	0.029	0.0	
2.0	0.0	0.0	0.0	0.0	-0.035	-0.003	
3.0	0.0	0.0	0.0	0.0	-0.035	0.032	
4.0	0.0	0.0	0.0	0.0	-0.096	0.061	
5.0	0.0	0.0	0.0	0.0	-0.16	0.054	
6.0	0.0	0.0	0.0	0.0	-0.118	0.064	
7.0	0.0	0.0	0.0	0.0	-0.15	0.054	
8.0	0.0	0.0	0.0	0.0	-0.153	0.067	
9.0	0.0	0.0	0.0	0.0	-0.109	0.048	
10.0	0.0	0.0	0.0	0.0	-0.064	0.016	
11.0	0.0	0.0	0.0	0.0	-0.01	-0.003	
12.0	0.0	0.0	0.0	0.0	0.032	-0.026	
13.0	0.0	0.0	0.0	0.0	0.045	-0.07	
14.0	0.0	0.0	0.0	0.0	0.051	-0.093	
15.0	0.0	0.0	0.0	0.0	0.121	-0.115	
0.0	0.0	0.0	0.0	0.0	0.125	-0.128	
1.0	0.0	0.0	0.0	0.0	0.125	-0.118	
2.0	0.0	0.0	0.0	0.0	0.176	-0.099	
3.0	0.0	0.0	0.0	0.0	0.141	-0.083	
4.0	0.0	0.0	0.0	0.0	0.109	-0.032	
5.0	0.0	0.0	0.0	0.0	0.089	-0.006	
6.0	0.0	0.0	0.0	0.0	0.035	0.006	
7.0	0.0	0.0	0.0	0.0	-0.073	0.022	
8.0	0.0	0.0	0.0	0.0	-0.204	0.032	
9.0	0.0	0.0	0.0	0.0	-0.243	0.07	
10.0	0.0	0.0	0.0	0.0	-0.214	0.07	
11.0	0.0	0.0	0.0	0.0	-0.153	0.096	
12.0	0.0	0.0	0.0	0.0	-0.15	0.102	
13.0	0.0	0.0	0.0	0.0	-0.102	0.054	
14.0	0.0	0.0	0.0	0.0	-0.013	0.022	
15.0	0.0	0.0	0.0	0.0	-0.029	-0.032	
0.0	0.0	0.0	0.0	0.0	-0.029	-0.073	
1.0	0.0	0.0	0.0	0.0	0.077	-0.073	
2.0	0.0	0.0	0.0	0.0	0.125	-0.099	
3.0	0.0	0.0	0.0	0.0	0.141	-0.099	
4.0	0.0	0.0	0.0	0.0	0.147	-0.118	
5.0	0.0	0.0	0.0	0.0	0.192	-0.102	
6.0	0.0	0.0	0.0	0.0	0.169	-0.102	
7.0	0.0	0.0	0.0	0.0	0.096	-0.096	
8.0	0.0	0.0	0.0	0.0	0.0	-0.067	
9.0	0.0	0.0	0.0	0.0	0.029	-0.01	
10.0	0.0	0.0	0.0	0.0	-0.003	0.032	
11.0	0.0	0.0	0.0	0.0	-0.064	0.057	
12.0	0.0	0.0	0.0	0.0	-0.089	0.096	
13.0	0.0	0.0	0.0	0.0	-0.061	0.115	
14.0	0.0	0.0	0.0	0.0	-0.089	0.115	
15.0	0.0	0.0	0.0	0.0	-0.137	0.093	
0.0	0.0	0.0	0.0	0.0	-0.195	0.07	
1.0	0.0	0.0	0.0	0.0	-0.188	0.048	
2.0	0.0	0.0	0.0	0.0	-0.08	0.026	
3.0	0.0	0.0	0.0	0.0	-0.01	0.003	
4.0	0.0	0.0	0.0	0.0	0.096	-0.038	
5.0	0.0	0.0	0.0	0.0	0.105	-0.067	
6.0	0.0	0.0	0.0	0.0	0.051	-0.125	
7.0	0.0	0.0	0.0	0.0	0.061	-0.15	
8.0	0.0	0.0	0.0	0.0	0.096	-0.115	
9.0	0.0	0.0	0.0	0.0	0.099	-0.096	
10.0	0.0	0.0	0.0	0.0	0.042	-0.134	
11.0	0.0	0.0	0.0	0.0	0.057	-0.115	
12.0	0.0	0.0	0.0	0.0	0.086	-0.051	
13.0	0.0	0.0	0.0	0.0	0.061	-0.022	
14.0	0.0	0.0	0.0	0.0	0.042	0.022	
15.0	0.0	0.0	0.0	0.0	-0.006	0.061	
0.0	0.0	0.0	0.0	0.0	-0.099	0.077	
1.0	0.0	0.0	0.0	0.0	-0.16	0.073	
2.0	0.0	0.0	0.0	0.0	-0.16	0.077	
3.0	0.0	0.0	0.0	0.0	-0.118	0.086	
4.0	0.0	0.0	0.0	0.0	-0.086	0.089	
5.0	0.0	0.0	0.0	0.0	-0.032	0.077	
6.0	0.0	0.0	0.0	0.0	-0.054	0.029	
7.0	0.0	0.0	0.0	0.0	-0.032	-0.006	
8.0	0.0	0.0	0.0	0.0	0.109	-0.026	
9.0	0.0	0.0	0.0	0.0	0.102	-0.093	
10.0	0.0	0.0	0.0	0.0	0.035	-0.118	
11.0	0.0	0.0	0.0	0.0	0.029	-0.118	
12.0	0.0	0.0	0.0	0.0	0.013	-0.134	
13.0	0.0	0.0	0.0	0.0	0.096	-0.115	
14.0	0.0	0.0	0.0	0.0	0.099	-0.118	
15.0	0.0	0.0	0.0	0.0	0.131	-0.102	
0.0	0.0	0.0	0.0	0.0	0.125	-0.029	
1.0	0.0	0.0	0.0	0.0	0.093	-0.006	
2.0	0.0	0.0	0.0	0.0	-0.067	0.0	
3.0	0.0	0.0	0.0	0.0	-0.169	0.032	
4.0	0.0	0.0	0.0	0.0	-0.163	0.086	
5.0	0.0	0.0	0.0	0.0	-0.137	0.096	
6.0	0.0	0.0	0.0	0.0	-0.089	0.102	
7.0	0.0	0.0	0.0	0.0	-0.08	0.089	
8.0	0.0	0.0	0.0	0.0	-0.093	0.064	
9.0	0.0	0.0	0.0	0.0	-0.08	0.038	
10.0	0.0	0.0	0.0	0.0	-0.045	0.006	
11.0	0.0	0.0	0.0	0.0	0.022	-0.003	
12.0	0.0	0.0	0.0	0.0	0.096	-0.003	
13.0	0.0	0.0	0.0	0.0	0.121	-0.032	
14.0	0.0	0.0	0.0	0.0	0.163	-0.086	
15.0	0.0	0.0	0.0	0.0	0.157	-0.118	
0.0	0.0	0.0	0.0	0.0	0.08	-0.134	
1.0	0.0	0.0	0.0	0.0	0.032	-0.147	
2.0	0.0	0.0	0.0	0.0	0.003	-0.112	
3.0	0.0	0.0	0.0	0.0	0.0	-0.064	
4.0	0.0	0.0	0.0	0.0	0.07	-0.026	
5.0	0.0	0.0	0.0	0.0	0.064	-0.006	
6.0	0.0	0.0	0.0	0.0	0.013	-0.006	
7.0	0.0	0.0	0.0	0.0	-0.077	0.022	
8.0	0.0	0.0	0.0	0.0	-0.077	0.083	
9.0	0.0	0.0	0.0	0.0	-0.086	0.112	
10.0	0.0	0.0	0.0	0.0	-0.134	0.093	
11.0	0.0	0.0	0.0	0.0	-0.179	0.096	
12.0	0.0	0.0	0.0	0.0	-0.195	0.089	
13.0	0.0	0.0	0.0	0.0	-0.118	0.045	
14.0	0.0	0.0	0.0	0.0	-0.07	-0.016	
15.0	0.0	0.0	0.0	0.0	-0.057	-0.064	
0.0	0.0	0.0	0.0	0.0	-0.019	-0.08	
1.0	0.0	0.0	0.0	0.0	0.064	-0.099	
2.0	0.0	0.0	0.0	0.0	0.131	-0.093	
3.0	0.0	0.0	0.0	0.0	0.054	-0.131	
4.0	0.0	0.0	0.0	0.0	0.006	-0.157	
5.0	0.0	0.0	0.0	0.0	0.134	-0.115	
6.0	0.0	0.0	0.0	0.0	0.163	-0.099	
7.0	0.0	0.0	0.0	0.0	0.166	-0.077	
8.0	0.0	0.0	0.0	0.0	0.163	-0.035	
9.0	0.0	0.0	0.0	0.0	0.153	0.026	
10.0	0.0	0.0	0.0	0.0	0.109	0.083	
11.0	0.0	0.0	0.0	0.0	0.022	0.118	
12.0	0.0	0.0	0.0	0.0	-0.064	0.15	
13.0	0.0	0.0	0.0	0.0	-0.137	0.128	
14.0	0.0	0.0	0.0	0.0	-0.22	0.026	
15.0	0.0	0.0	0.0	0.0	-0.128	0.019	
0.0	0.0	0.0	0.0	0.0	-0.125	0.038	
1.0	0.0	0.0	0.0	0.0	-0.179	0.019	
2.0	0.0	0.0	0.0	0.0	-0.24	-0.019	
3.0	0.0	0.0	0.0	0.0	-0.188	-0.048	
4.0	0.0	0.0	0.0	0.0	-0.048	-0.067	
5.0	0.0	0.0	0.0	0.0	0.057	-0.093	
6.0	0.0	0.0	0.0	0.0	0.163	-0.109	
7.0	0.0	0.0	0.0	0.0	0.214	-0.115	
8.0	0.0	0.0	0.0	0.0	0.236	-0.093	
9.0	0.0	0.0	0.0	0.0	0.24	-0.064	
10.0	0.0	0.0	0.0	0.0	0.208	-0.029	
11.0	0.0	0.0	0.0	0.0	0.147	-0.029	
12.0	0.0	0.0	0.0	0.0	0.077	-0.022	
13.0	0.0	0.0	0.0	0.0	-0.045	-0.051	
14.0	0.0	0.0	0.0	0.0	-0.128	-0.016	
15.0	0.0	0.0	0.0	0.0	-0.195	0.01	
0.0	0.0	0.0	0.0	0.0	-0.131	0.086	
1.0	0.0	0.0	0.0	0.0	-0.102	0.125	
2.0	0.0	0.0	0.0	0.0	-0.054	0.115	
3.0	0.0	0.0	0.0	0.0	-0.093	0.083	
4.0	0.0	0.0	0.0	0.0	-0.15	0.042	
5.0	0.0	0.0	0.0	0.0	-0.147	0.019	
6.0	0.0	0.0	0.0	0.0	-0.16	-0.026	
7.0	0.0	0.0	0.0	0.0	-0.042	-0.057	
8.0	0.0	0.0	0.0	0.0	-0.016	-0.067	
9.0	0.0	0.0	0.0	0.0	0.0	-0.086	
10.0	0.0	0.0	0.0	0.0	0.048	-0.109	
11.0	0.0	0.0	0.0	0.0	0.157	-0.115	
12.0	0.0	0.0	0.0	0.0	0.169	-0.125	
13.0	0.0	0.0	0.0	0.0	0.147	-0.105	
14.0	0.0	0.0	0.0	0.0	0.208	-0.093	
15.0	0.0	0.0	0.0	0.0	0.185	-0.07	
0.0	0.0	0.0	0.0	0.0	0.077	-0.042	
1.0	0.0	0.0	0.0	0.0	0.019	-0.013	
2.0	0.0	0.0	0.0	0.0	0.016	0.029	
3.0	0.0	0.0	0.0	0.0	0.01	0.073	
4.0	0.0	0.0	0.0	0.0	0.003	0.118	
5.0	0.0	0.0	0.0	0.0	-0.064	0.137	
6.0	0.0	0.0	0.0	0.0	-0.163	0.105	
7.0	0.0	0.0	0.0	0.0	-0.166	0.089	
8.0	0.0	0.0	0.0	0.0	-0.125	0.035	
9.0	0.0	0.0	0.0	0.0	-0.22	-0.019	
10.0	0.0	0.0	0.0	0.0	-0.262	-0.08	
11.0	0.0	0.0	0.0	0.0	-0.093	-0.045	
12.0	0.0	0.0	0.0	0.0	-0.016	-0.042	
13.0	0.0	0.0	0.0	0.0	-0.032	-0.07	
14.0	0.0	0.0	0.0	0.0	0.089	-0.083	
15.0	0.0	0.0	0.0	0.0	0.137	-0.118	
0.0	0.0	0.0	0.0	0.0	0.195	-0.144	
1.0	0.0	0.0	0.0	0.0	0.227	-0.131	
2.0	0.0	0.0	0.0	0.0	0.185	-0.096	
3.0	0.0	0.0	0.0	0.0	0.214	-0.045	
4.0	0.0	0.0	0.0	0.0	0.163	0.016	
5.0	0.0	0.0	0.0	0.0	0.144	0.086	
6.0	0.0	0.0	0.0	0.0	0.048	0.093	
7.0	0.0	0.0	0.0	0.0	0.064	0.102	
8.0	0.0	0.0	0.0	0.0	-0.077	0.042	
9.0	0.0	0.0	0.0	0.0	-0.166	0.045	
10.0	0.0	0.0	0.0	0.0	-0.185	0.057	
11.0	0.0	0.0	0.0	0.0	-0.166	0.051	
12.0	0.0	0.0	0.0	0.0	-0.224	0.019	
13.0	0.0	0.0	0.0	0.0	-0.211	0.032	
14.0	0.0	0.0	0.0	0.0	-0.099	0.006	
15.0	0.0	0.0	0.0	0.0	0.064	0.01	
0.0	0.0	0.0	0.0	0.0	0.01	-0.016	
1.0	0.0	0.0	0.0	0.0	-0.026	-0.073	
2.0	0.0	0.0	0.0	0.0	-0.064	-0.137	
3.0	0.0	0.0	0.0	0.0	0.093	-0.144	
4.0	0.0	0.0	0.0	0.0	0.016	-0.15	
5.0	0.0	0.0	0.0	0.0	-0.026	-0.137	
6.0	0.0	0.0	0.0	0.0	0.08	-0.105	
7.0	0.0	0.0	0.0	0.0	0.032	-0.109	
8.0	0.0	0.0	0.0	0.0	-0.006	-0.057	
9.0	0.0	0.0	0.0	0.0	0.029	-0.032	
10.0	0.0	0.0	0.0	0.0	0.112	0.026	
11.0	0.0	0.0	0.0	0.0	0.07	0.08	
12.0	0.0	0.0	0.0	0.0	-0.016	0.089	
13.0	0.0	0.0	0.0	0.0	-0.176	0.073	
14.0	0.0	0.0	0.0	0.0	-0.176	0.109	
15.0	0.0	0.0	0.0	0.0	-0.163	0.08	
0.0	0.0	0.0	0.0	0.0	-0.112	0.096	
1.0	0.0	0.0	0.0	0.0	-0.096	0.01	
2.0	0.0	0.0	0.0	0.0	0.038	0.022	
3.0	0.0	0.0	0.0	0.0	0.118	0.054	
4.0	0.0	0.0	0.0	0.0	0.176	0.029	
5.0	0.0	0.0	0.0	0.0	0.201	-0.054	
6.0	0.0	0.0	0.0	0.0	0.147	-0.128	
7.0	0.0	0.0	0.0	0.0	0.115	-0.172	
8.0	0.0	0.0	0.0	0.0	0.003	-0.15	
9.0	0.0	0.0	0.0	0.0	-0.045	-0.121	
10.0	0.0	0.0	0.0	0.0	0.089	-0.099	
11.0	0.0	0.0	0.0	0.0	-0.016	-0.115	
12.0	0.0	0.0	0.0	0.0	-0.064	-0.083	
13.0	0.0	0.0	0.0	0.0	0.061	-0.035	
14.0	0.0	0.0	0.0	0.0	0.042	0.026	
15.0	0.0	0.0	0.0	0.0	-0.086	0.042	
0.0	0.0	0.0	0.0	0.0	-0.163	0.073	
1.0	0.0	0.0	0.0	0.0	-0.141	0.077	
2.0	0.0	0.0	0.0	0.0	-0.115	0.089	
3.0	0.0	0.0	0.0	0.0	-0.054	0.128	
4.0	0.0	0.0	0.0	0.0	-0.125	0.086	
5.0	0.0	0.0	0.0	0.0	-0.233	0.032	
6.0	0.0	0.0	0.0	0.0	-0.109	0.035	
7.0	0.0	0.0	0.0	0.0	-0.042	0.035	
8.0	0.0	0.0	0.0	0.0	-0.032	-0.032	
9.0	0.0	0.0	0.0	0.0	0.118	-0.093	
10.0	0.0	0.0	0.0	0.0	0.201	-0.112	
11.0	0.0	0.0	0.0	0.0	0.192	-0.121	
12.0	0.0	0.0	0.0	0.0	0.262	-0.102	
13.0	0.0	0.0	0.0	0.0	0.287	-0.109	
14.0	0.0	0.0	0.0	0.0	0.23	-0.096	
15.0	0.0	0.0	0.0	0.0	0.131	-0.086	
0.0	0.0	0.0	0.0	0.0	0.026	-0.064	
1.0	0.0	0.0	0.0	0.0	-0.029	-0.022	
2.0	0.0	0.0	0.0	0.0	-0.073	-0.016	
3.0	0.0	0.0	0.0	0.0	-0.141	0.029	
4.0	0.0	0.0	0.0	0.0	-0.157	0.051	
5.0	0.0	0.0	0.0	0.0	-0.073	0.07	
6.0	0.0	0.0	0.0	0.0	-0.211	0.089	
7.0	0.0	0.0	0.0	0.0	-0.278	0.105	
8.0	0.0	0.0	0.0	0.0	-0.141	0.109	
9.0	0.0	0.0	0.0	0.0	-0.064	0.083	
10.0	0.0	0.0	0.0	0.0	-0.026	0.045	
11.0	0.0	0.0	0.0	0.0	-0.003	-0.003	
12.0	0.0	0.0	0.0	0.0	-0.026	-0.064	
13.0	0.0	0.0	0.0	0.0	-0.035	-0.118	
14.0	0.0	0.0	0.0	0.0	0.032	-0.157	
15.0	0.0	0.0	0.0	0.0	0.115	-0.134	
0.0	0.0	0.0	0.0	0.0	0.179	-0.105	
1.0	0.0	0.0	0.0	0.0	0.115	-0.102	
2.0	0.0	0.0	0.0	0.0	0.089	-0.089	
3.0	0.0	0.0	0.0	0.0	0.057	-0.089	
4.0	0.0	0.0	0.0	0.0	0.214	-0.035	
5.0	0.0	0.0	0.0	0.0	0.096	-0.006	
6.0	0.0	0.0	0.0	0.0	0.051	0.029	
7.0	0.0	0.0	0.0	0.0	-0.01	0.045	
8.0	0.0	0.0	0.0	0.0	0.0	0.102	
9.0	0.0	0.0	0.0	0.0	-0.016	0.141	
10.0	0.0	0.0	0.0	0.0	-0.013	0.137	
11.0	0.0	0.0	0.0	0.0	-0.112	0.077	
12.0	0.0	0.0	0.0	0.0	-0.195	0.013	
13.0	0.0	0.0	0.0	0.0	-0.188	0.013	
14.0	0.0	0.0	0.0	0.0	-0.144	0.035	
15.0	0.0	0.0	0.0	0.0	-0.048	0.019	
0.0	0.0	0.0	0.0	0.0	0.048	-0.022	
1.0	0.0	0.0	0.0	0.0	0.112	-0.07	
2.0	0.0	0.0	0.0	0.0	0.083	-0.131	
3.0	0.0	0.0	0.0	0.0	0.096	-0.157	
4.0	0.0	0.0	0.0	0.0	0.086	-0.16	
5.0	0.0	0.0	0.0	0.0	-0.003	-0.147	
6.0	0.0	0.0	0.0	0.0	-0.073	-0.125	
7.0	0.0	0.0	0.0	0.0	-0.003	-0.099	
8.0	0.0	0.0	0.0	0.0	-0.006	-0.051	
9.0	0.0	0.0	0.0	0.0	0.013	0.006	
10.0	0.0	0.0	0.0	0.0	0.105	0.048	
11.0	0.0	0.0	0.0	0.0	0.093	0.077	
12.0	0.0	0.0	0.0	0.0	0.067	0.121	
13.0	0.0	0.0	0.0	0.0	0.118	0.15	
14.0	0.0	0.0	0.0	0.0	0.112	0.141	
15.0	0.0	0.0	0.0	0.0	-0.026	0.089	
0.0	0.0	0.0	0.0	0.0	-0.045	0.061	
1.0	0.0	0.0	0.0	0.0	-0.227	-0.035	
2.0	0.0	0.0	0.0	0.0	-0.125	-0.051	
3.0	0.0	0.0	0.0	0.0	-0.243	-0.128	
4.0	0.0	0.0	0.0	0.0	-0.026	-0.048	
5.0	0.0	0.0	0.0	0.0	0.137	-0.054	
6.0	0.0	0.0	0.0	0.0	0.099	-0.077	
7.0	0.0	0.0	0.0	0.0	0.019	-0.105	
8.0	0.0	0.0	0.0	0.0	0.0	-0.134	
9.0	0.0	0.0	0.0	0.0	0.048	-0.118	
10.0	0.0	0.0	0.0	0.0	-0.057	-0.093	
11.0	0.0	0.0	0.0	0.0	-0.099	-0.042	
12.0	0.0	0.0	0.0	0.0	-0.083	-0.026	
13.0	0.0	0.0	0.0	0.0	0.026	0.029	
14.0	0.0	0.0	0.0	0.0	0.099	0.112	
15.0	0.0	0.0	0.0	0.0	0.003	0.137	
0.0	0.0	0.0	0.0	0.0	-0.099	0.08	
1.0	0.0	0.0	0.0	0.0	-0.265	0.003	
2.0	0.0	0.0	0.0	0.0	-0.144	-0.003	
3.0	0.0	0.0	0.0	0.0	-0.07	0.051	
4.0	0.0	0.0	0.0	0.0	-0.195	0.061	
5.0	0.0	0.0	0.0	0.0	-0.115	0.048	
6.0	0.0	0.0	0.0	0.0	-0.089	0.019	
7.0	0.0	0.0	0.0	0.0	-0.003	-0.016	
8.0	0.0	0.0	0.0	0.0	0.188	-0.07	
9.0	0.0	0.0	0.0	0.0	0.396	-0.102	
10.0	0.0	0.0	0.0	0.0	0.492	-0.128	
11.0	0.0	0.0	0.0	0.0	0.613	-0.109	
12.0	0.0	0.0	0.0	0.0	0.495	-0.118	
13.0	0.0	0.0	0.0	0.0	0.192	-0.102	
14.0	0.0	0.0	0.0	0.0	-0.026	-0.086	
15.0	0.0	0.0	0.0	0.0	-0.284	-0.121	
0.0	0.0	0.0	0.0	0.0	-0.479	-0.064	
1.0	0.0	0.0	0.0	0.0	-0.45	-0.019	
2.0	0.0	0.0	0.0	0.0	-0.37	0.016	
3.0	0.0	0.0	0.0	0.0	-0.195	0.077	
4.0	0.0	0.0	0.0	0.0	-0.201	0.099	
5.0	0.0	0.0	0.0	0.0	-0.16	0.086	
6.0	0.0	0.0	0.0	0.0	-0.013	0.086	
7.0	0.0	0.0	0.0	0.0	0.141	0.089	
8.0	0.0	0.0	0.0	0.0	0.326	0.125	
9.0	0.0	0.0	0.0	0.0	0.425	0.144	
10.0	0.0	0.0	0.0	0.0	0.281	0.067	
11.0	0.0	0.0	0.0	0.0	0.083	-0.013	
12.0	0.0	0.0	0.0	0.0	-0.131	-0.077	
13.0	0.0	0.0	0.0	0.0	-0.16	-0.125	
14.0	0.0	0.0	0.0	0.0	-0.275	-0.147	
15.0	0.0	0.0	0.0	0.0	-0.537	-0.166	
0.0	0.0	0.0	0.0	0.0	-0.23	-0.163	
1.0	0.0	0.0	0.0	0.0	0.061	-0.125	
2.0	0.0	0.0	0.0	0.0	0.192	-0.099	
3.0	0.0	0.0	0.0	0.0	0.198	-0.077	
4.0	0.0	0.0	0.0	0.0	0.061	-0.048	
5.0	0.0	0.0	0.0	0.0	0.032	-0.029	
6.0	0.0	0.0	0.0	0.0	0.0	-0.016	
7.0	0.0	0.0	0.0	0.0	0.045	0.032	
8.0	0.0	0.0	0.0	0.0	-0.054	0.054	
9.0	0.0	0.0	0.0	0.0	-0.051	0.099	
10.0	0.0	0.0	0.0	0.0	0.048	0.141	
11.0	0.0	0.0	0.0	0.0	-0.006	0.089	
12.0	0.0	0.0	0.0	0.0	0.073	0.089	
13.0	0.0	0.0	0.0	0.0	0.048	0.077	
14.0	0.0	0.0	0.0	0.0	-0.057	0.032	
15.0	0.0	0.0	0.0	0.0	-0.067	0.006	
0.0	0.0	0.0	0.0	0.0	-0.013	0.01	
1.0	0.0	0.0	0.0	0.0	0.067	0.003	
2.0	0.0	0.0	0.0	0.0	0.042	-0.102	
3.0	0.0	0.0	0.0	0.0	0.07	-0.131	
4.0	0.0	0.0	0.0	0.0	-0.038	-0.16	
5.0	0.0	0.0	0.0	0.0	-0.214	-0.195	
6.0	0.0	0.0	0.0	0.0	-0.003	-0.163	
7.0	0.0	0.0	0.0	0.0	-0.003	-0.15	
8.0	0.0	0.0	0.0	0.0	0.003	-0.067	
9.0	0.0	0.0	0.0	0.0	-0.029	-0.026	
10.0	0.0	0.0	0.0	0.0	-0.006	-0.01	
11.0	0.0	0.0	0.0	0.0	0.073	0.051	
12.0	0.0	0.0	0.0	0.0	0.077	0.086	
13.0	0.0	0.0	0.0	0.0	0.118	0.099	
14.0	0.0	0.0	0.0	0.0	0.131	0.102	
15.0	0.0	0.0	0.0	0.0	0.089	0.102	
0.0	0.0	0.0	0.0	0.0	0.051	0.112	
1.0	0.0	0.0	0.0	0.0	-0.089	0.083	
2.0	0.0	0.0	0.0	0.0	-0.185	0.038	
3.0	0.0	0.0	0.0	0.0	-0.038	0.032	
4.0	0.0	0.0	0.0	0.0	0.083	0.019	
5.0	0.0	0.0	0.0	0.0	-0.029	-0.054	
6.0	0.0	0.0	0.0	0.0	0.022	-0.137	
7.0	0.0	0.0	0.0	0.0	0.163	-0.15	
8.0	0.0	0.0	0.0	0.0	0.067	-0.112	
9.0	0.0	0.0	0.0	0.0	0.026	-0.131	
10.0	0.0	0.0	0.0	0.0	0.128	-0.169	
11.0	0.0	0.0	0.0	0.0	0.048	-0.141	
12.0	0.0	0.0	0.0	0.0	0.032	-0.077	
13.0	0.0	0.0	0.0	0.0	0.134	-0.003	
14.0	0.0	0.0	0.0	0.0	0.013	0.022	
15.0	0.0	0.0	0.0	0.0	-0.256	0.042	
0.0	0.0	0.0	0.0	0.0	-0.383	0.067	
1.0	0.0	0.0	0.0	0.0	-0.23	0.089	
2.0	0.0	0.0	0.0	0.0	-0.192	0.086	
3.0	0.0	0.0	0.0	0.0	-0.243	0.089	
4.0	0.0	0.0	0.0	0.0	-0.176	0.067	
5.0	0.0	0.0	0.0	0.0	-0.057	0.083	
6.0	0.0	0.0	0.0	0.0	0.019	0.032	
7.0	0.0	0.0	0.0	0.0	0.096	0.013	
8.0	0.0	0.0	0.0	0.0	0.109	-0.022	
9.0	0.0	0.0	0.0	0.0	0.131	-0.064	
10.0	0.0	0.0	0.0	0.0	0.128	-0.099	
11.0	0.0	0.0	0.0	0.0	0.128	-0.134	
12.0	0.0	0.0	0.0	0.0	0.115	-0.115	
13.0	0.0	0.0	0.0	0.0	0.109	-0.121	
14.0	0.0	0.0	0.0	0.0	0.105	-0.118	
15.0	0.0	0.0	0.0	0.0	0.144	-0.089	
0.0	0.0	0.0	0.0	0.0	0.172	-0.016	
1.0	0.0	0.0	0.0	0.0	0.141	-0.016	
2.0	0.0	0.0	0.0	0.0	0.054	-0.003	
3.0	0.0	0.0	0.0	0.0	-0.096	0.013	
4.0	0.0	0.0	0.0	0.0	-0.147	0.051	
5.0	0.0	0.0	0.0	0.0	-0.137	0.096	
6.0	0.0	0.0	0.0	0.0	-0.125	0.105	
7.0	0.0	0.0	0.0	0.0	-0.134	0.099	
8.0	0.0	0.0	0.0	0.0	-0.134	0.083	
9.0	0.0	0.0	0.0	0.0	-0.137	0.048	
10.0	0.0	0.0	0.0	0.0	-0.08	0.013	
11.0	0.0	0.0	0.0	0.0	-0.032	-0.026	
12.0	0.0	0.0	0.0	0.0	0.022	-0.054	
13.0	0.0	0.0	0.0	0.0	0.105	-0.077	
14.0	0.0	0.0	0.0	0.0	0.141	-0.112	
15.0	0.0	0.0	0.0	0.0	0.16	-0.118	
0.0	0.0	0.0	0.0	0.0	0.141	-0.115	
1.0	0.0	0.0	0.0	0.0	0.141	-0.109	
2.0	0.0	0.0	0.0	0.0	0.102	-0.102	
3.0	0.0	0.0	0.0	0.0	0.077	-0.083	
4.0	0.0	0.0	0.0	0.0	0.089	-0.045	
5.0	0.0	0.0	0.0	0.0	0.032	-0.006	
6.0	0.0	0.0	0.0	0.0	-0.042	0.019	
7.0	0.0	0.0	0.0	0.0	-0.125	0.045	
8.0	0.0	0.0	0.0	0.0	-0.224	0.08	
9.0	0.0	0.0	0.0	0.0	-0.185	0.096	
10.0	0.0	0.0	0.0	0.0	-0.176	0.086	
11.0	0.0	0.0	0.0	0.0	-0.128	0.096	
12.0	0.0	0.0	0.0	0.0	-0.061	0.08	
13.0	0.0	0.0	0.0	0.0	-0.042	0.048	
14.0	0.0	0.0	0.0	0.0	-0.006	0.016	
15.0	0.0	0.0	0.0	0.0	0.026	-0.003	
0.0	0.0	0.0	0.0	0.0	0.054	-0.029	
1.0	0.0	0.0	0.0	0.0	0.057	-0.073	
2.0	0.0	0.0	0.0	0.0	0.08	-0.102	
3.0	0.0	0.0	0.0	0.0	0.051	-0.144	
4.0	0.0	0.0	0.0	0.0	0.07	-0.144	
5.0	0.0	0.0	0.0	0.0	0.109	-0.134	
6.0	0.0	0.0	0.0	0.0	0.102	-0.115	
7.0	0.0	0.0	0.0	0.0	0.07	-0.083	
8.0	0.0	0.0	0.0	0.0	0.048	-0.038	
9.0	0.0	0.0	0.0	0.0	0.054	-0.016	
10.0	0.0	0.0	0.0	0.0	0.013	0.013	
11.0	0.0	0.0	0.0	0.0	-0.026	0.048	
12.0	0.0	0.0	0.0	0.0	-0.057	0.089	
13.0	0.0	0.0	0.0	0.0	-0.089	0.102	
14.0	0.0	0.0	0.0	0.0	-0.096	0.089	
15.0	0.0	0.0	0.0	0.0	-0.112	0.093	
0.0	0.0	0.0	0.0	0.0	-0.121	0.077	
1.0	0.0	0.0	0.0	0.0	-0.105	0.051	
2.0	0.0	0.0	0.0	0.0	-0.109	0.013	
3.0	0.0	0.0	0.0	0.0	-0.073	-0.016	
4.0	0.0	0.0	0.0	0.0	-0.032	-0.048	
5.0	0.0	0.0	0.0	0.0	0.035	-0.077	
6.0	0.0	0.0	0.0	0.0	0.102	-0.105	
7.0	0.0	0.0	0.0	0.0	0.141	-0.121	
8.0	0.0	0.0	0.0	0.0	0.172	-0.121	
9.0	0.0	0.0	0.0	0.0	0.153	-0.121	
10.0	0.0	0.0	0.0	0.0	0.077	-0.118	
11.0	0.0	0.0	0.0	0.0	0.061	-0.093	
12.0	0.0	0.0	0.0	0.0	0.077	-0.042	
13.0	0.0	0.0	0.0	0.0	0.038	-0.003	
14.0	0.0	0.0	0.0	0.0	-0.006	0.029	
15.0	0.0	0.0	0.0	0.0	-0.01	0.061	
0.0	0.0	0.0	0.0	0.0	0.0	0.086	
1.0	0.0	0.0	0.0	0.0	-0.096	0.093	
2.0	0.0	0.0	0.0	0.0	-0.166	0.089	
3.0	0.0	0.0	0.0	0.0	-0.208	0.083	
4.0	0.0	0.0	0.0	0.0	-0.192	0.07	
5.0	0.0	0.0	0.0	0.0	-0.141	0.042	
6.0	0.0	0.0	0.0	0.0	-0.083	0.0	
7.0	0.0	0.0	0.0	0.0	-0.019	-0.013	
8.0	0.0	0.0	0.0	0.0	0.01	-0.042	
9.0	0.0	0.0	0.0	0.0	0.054	-0.083	
10.0	0.0	0.0	0.0	0.0	0.045	-0.109	
11.0	0.0	0.0	0.0	0.0	0.089	-0.131	
12.0	0.0	0.0	0.0	0.0	0.118	-0.125	
13.0	0.0	0.0	0.0	0.0	0.121	-0.118	
14.0	0.0	0.0	0.0	0.0	0.131	-0.105	
15.0	0.0	0.0	0.0	0.0	0.125	-0.083	
0.0	0.0	0.0	0.0	0.0	0.086	-0.045	
1.0	0.0	0.0	0.0	0.0	0.054	-0.013	
2.0	0.0	0.0	0.0	0.0	0.026	0.016	
3.0	0.0	0.0	0.0	0.0	0.003	0.064	
4.0	0.0	0.0	0.0	0.0	-0.045	0.105	
5.0	0.0	0.0	0.0	0.0	-0.099	0.112	
6.0	0.0	0.0	0.0	0.0	-0.125	0.115	
7.0	0.0	0.0	0.0	0.0	-0.141	0.112	
8.0	0.0	0.0	0.0	0.0	-0.176	0.073	
9.0	0.0	0.0	0.0	0.0	-0.166	0.035	
10.0	0.0	0.0	0.0	0.0	-0.096	-0.016	
11.0	0.0	0.0	0.0	0.0	-0.054	-0.048	
12.0	0.0	0.0	0.0	0.0	-0.026	-0.048	
13.0	0.0	0.0	0.0	0.0	0.016	-0.064	
14.0	0.0	0.0	0.0	0.0	0.077	-0.093	
15.0	0.0	0.0	0.0	0.0	0.112	-0.08	
0.0	0.0	0.0	0.0	0.0	0.137	-0.083	
1.0	0.0	0.0	0.0	0.0	0.15	-0.089	
2.0	0.0	0.0	0.0	0.0	0.128	-0.118	
3.0	0.0	0.0	0.0	0.0	0.096	-0.112	
4.0	0.0	0.0	0.0	0.0	0.057	-0.061	
5.0	0.0	0.0	0.0	0.0	0.032	-0.01	
6.0	0.0	0.0	0.0	0.0	0.022	-0.01	
7.0	0.0	0.0	0.0	0.0	-0.016	-0.016	
8.0	0.0	0.0	0.0	0.0	-0.048	0.013	
9.0	0.0	0.0	0.0	0.0	-0.067	0.042	
10.0	0.0	0.0	0.0	0.0	-0.083	0.077	
11.0	0.0	0.0	0.0	0.0	-0.128	0.096	
12.0	0.0	0.0	0.0	0.0	-0.134	0.102	
13.0	0.0	0.0	0.0	0.0	-0.099	0.089	
14.0	0.0	0.0	0.0	0.0	-0.051	0.042	
15.0	0.0	0.0	0.0	0.0	-0.013	-0.003	
0.0	0.0	0.0	0.0	0.0	0.013	-0.042	
1.0	0.0	0.0	0.0	0.0	0.038	-0.077	
2.0	0.0	0.0	0.0	0.0	0.077	-0.112	
3.0	0.0	0.0	0.0	0.0	0.08	-0.086	
4.0	0.0	0.0	0.0	0.0	0.089	-0.067	
5.0	0.0	0.0	0.0	0.0	0.112	-0.051	
6.0	0.0	0.0	0.0	0.0	0.131	-0.054	
7.0	0.0	0.0	0.0	0.0	0.109	-0.051	
8.0	0.0	0.0	0.0	0.0	0.073	-0.038	
9.0	0.0	0.0	0.0	0.0	0.032	-0.022	
10.0	0.0	0.0	0.0	0.0	-0.013	-0.016	
11.0	0.0	0.0	0.0	0.0	-0.067	0.029	
12.0	0.0	0.0	0.0	0.0	-0.118	0.042	
13.0	0.0	0.0	0.0	0.0	-0.134	0.073	
14.0	0.0	0.0	0.0	0.0	-0.137	0.073	
15.0	0.0	0.0	0.0	0.0	-0.131	0.051	
0.0	0.0	0.0	0.0	0.0	-0.15	0.051	
1.0	0.0	0.0	0.0	0.0	-0.131	0.003	
2.0	0.0	0.0	0.0	0.0	-0.093	-0.022	
3.0	0.0	0.0	0.0	0.0	-0.051	-0.029	
4.0	0.0	0.0	0.0	0.0	0.003	-0.064	
5.0	0.0	0.0	0.0	0.0	0.07	-0.134	
6.0	0.0	0.0	0.0	0.0	0.118	-0.166	
7.0	0.0	0.0	0.0	0.0	0.179	-0.118	
8.0	0.0	0.0	0.0	0.0	0.192	-0.089	
9.0	0.0	0.0	0.0	0.0	0.176	-0.093	
10.0	0.0	0.0	0.0	0.0	0.153	-0.086	
11.0	0.0	0.0	0.0	0.0	0.118	-0.064	
12.0	0.0	0.0	0.0	0.0	0.07	-0.022	
13.0	0.0	0.0	0.0	0.0	0.022	0.016	
14.0	0.0	0.0	0.0	0.0	-0.019	0.035	
15.0	0.0	0.0	0.0	0.0	-0.067	0.089	
0.0	0.0	0.0	0.0	0.0	-0.115	0.134	
1.0	0.0	0.0	0.0	0.0	-0.15	0.115	
2.0	0.0	0.0	0.0	0.0	-0.169	0.121	
3.0	0.0	0.0	0.0	0.0	-0.179	0.16	
4.0	0.0	0.0	0.0	0.0	-0.163	0.141	
5.0	0.0	0.0	0.0	0.0	-0.141	0.083	
6.0	0.0	0.0	0.0	0.0	-0.08	0.038	
7.0	0.0	0.0	0.0	0.0	-0.029	-0.01	
8.0	0.0	0.0	0.0	0.0	0.0	-0.096	
9.0	0.0	0.0	0.0	0.0	0.038	-0.204	
10.0	0.0	0.0	0.0	0.0	0.054	-0.259	
11.0	0.0	0.0	0.0	0.0	0.086	-0.281	
12.0	0.0	0.0	0.0	0.0	0.121	-0.233	
13.0	0.0	0.0	0.0	0.0	0.16	-0.185	
14.0	0.0	0.0	0.0	0.0	0.179	-0.102	
15.0	0.0	0.0	0.0	0.0	0.179	0.006	
0.0	0.0	0.0	0.0	0.0	0.166	0.077	
1.0	0.0	0.0	0.0	0.0	0.115	0.08	
2.0	0.0	0.0	0.0	0.0	0.022	0.045	
3.0	0.0	0.0	0.0	0.0	-0.054	0.054	
4.0	0.0	0.0	0.0	0.0	-0.115	0.08	
5.0	0.0	0.0	0.0	0.0	-0.141	0.115	
6.0	0.0	0.0	0.0	0.0	-0.137	0.099	
7.0	0.0	0.0	0.0	0.0	-0.147	0.045	
8.0	0.0	0.0	0.0	0.0	-0.147	0.048	
9.0	0.0	0.0	0.0	0.0	-0.131	0.064	
10.0	0.0	0.0	0.0	0.0	-0.086	0.032	
11.0	0.0	0.0	0.0	0.0	-0.038	-0.01	
12.0	0.0	0.0	0.0	0.0	-0.013	-0.016	
13.0	0.0	0.0	0.0	0.0	0.019	-0.073	
14.0	0.0	0.0	0.0	0.0	0.054	-0.128	
15.0	0.0	0.0	0.0	0.0	0.08	-0.163	
0.0	0.0	0.0	0.0	0.0	0.093	-0.144	
1.0	0.0	0.0	0.0	0.0	0.118	-0.115	
2.0	0.0	0.0	0.0	0.0	0.131	-0.086	
3.0	0.0	0.0	0.0	0.0	0.115	-0.067	
4.0	0.0	0.0	0.0	0.0	0.07	-0.038	
5.0	0.0	0.0	0.0	0.0	0.038	-0.013	
6.0	0.0	0.0	0.0	0.0	0.01	0.022	
7.0	0.0	0.0	0.0	0.0	-0.022	0.067	
8.0	0.0	0.0	0.0	0.0	-0.054	0.102	
9.0	0.0	0.0	0.0	0.0	-0.073	0.105	
10.0	0.0	0.0	0.0	0.0	-0.099	0.077	
11.0	0.0	0.0	0.0	0.0	-0.121	0.042	
12.0	0.0	0.0	0.0	0.0	-0.147	0.003	
13.0	0.0	0.0	0.0	0.0	-0.128	0.0	
14.0	0.0	0.0	0.0	0.0	-0.099	-0.006	
15.0	0.0	0.0	0.0	0.0	-0.042	0.0	
0.0	0.0	0.0	0.0	0.0	0.003	-0.01	
1.0	0.0	0.0	0.0	0.0	0.064	-0.035	
2.0	0.0	0.0	0.0	0.0	0.089	-0.067	
3.0	0.0	0.0	0.0	0.0	0.109	-0.099	
4.0	0.0	0.0	0.0	0.0	0.118	-0.109	
5.0	0.0	0.0	0.0	0.0	0.125	-0.118	
6.0	0.0	0.0	0.0	0.0	0.121	-0.115	
7.0	0.0	0.0	0.0	0.0	0.105	-0.096	
8.0	0.0	0.0	0.0	0.0	0.07	-0.057	
9.0	0.0	0.0	0.0	0.0	0.038	-0.029	
10.0	0.0	0.0	0.0	0.0	0.0	0.006	
11.0	0.0	0.0	0.0	0.0	-0.045	0.038	
12.0	0.0	0.0	0.0	0.0	-0.093	0.089	
13.0	0.0	0.0	0.0	0.0	-0.144	0.125	
14.0	0.0	0.0	0.0	0.0	-0.153	0.125	
15.0	0.0	0.0	0.0	0.0	-0.153	0.112	
0.0	0.0	0.0	0.0	0.0	-0.157	0.096	
1.0	0.0	0.0	0.0	0.0	-0.131	0.054	
2.0	0.0	0.0	0.0	0.0	-0.073	0.003	
3.0	0.0	0.0	0.0	0.0	-0.042	-0.042	
4.0	0.0	0.0	0.0	0.0	-0.006	-0.051	
5.0	0.0	0.0	0.0	0.0	0.038	-0.073	
6.0	0.0	0.0	0.0	0.0	0.073	-0.128	
7.0	0.0	0.0	0.0	0.0	0.102	-0.157	
8.0	0.0	0.0	0.0	0.0	0.125	-0.163	
9.0	0.0	0.0	0.0	0.0	0.128	-0.172	
10.0	0.0	0.0	0.0	0.0	0.157	-0.163	
11.0	0.0	0.0	0.0	0.0	0.153	-0.073	
12.0	0.0	0.0	0.0	0.0	0.115	-0.013	
13.0	0.0	0.0	0.0	0.0	0.073	0.006	
14.0	0.0	0.0	0.0	0.0	0.026	0.026	
15.0	0.0	0.0	0.0	0.0	-0.022	0.064	
0.0	0.0	0.0	0.0	0.0	-0.086	0.083	
1.0	0.0	0.0	0.0	0.0	-0.131	0.08	
2.0	0.0	0.0	0.0	0.0	-0.153	0.112	
3.0	0.0	0.0	0.0	0.0	-0.153	0.112	
4.0	0.0	0.0	0.0	0.0	-0.144	0.096	
5.0	0.0	0.0	0.0	0.0	-0.128	0.045	
6.0	0.0	0.0	0.0	0.0	-0.077	0.013	
7.0	0.0	0.0	0.0	0.0	-0.038	0.0	
8.0	0.0	0.0	0.0	0.0	-0.003	-0.038	
9.0	0.0	0.0	0.0	0.0	0.038	-0.096	
10.0	0.0	0.0	0.0	0.0	0.08	-0.112	
11.0	0.0	0.0	0.0	0.0	0.125	-0.115	
12.0	0.0	0.0	0.0	0.0	0.141	-0.128	
13.0	0.0	0.0	0.0	0.0	0.131	-0.128	
14.0	0.0	0.0	0.0	0.0	0.112	-0.137	
15.0	0.0	0.0	0.0	0.0	0.083	-0.089	
0.0	0.0	0.0	0.0	0.0	0.061	-0.038	
1.0	0.0	0.0	0.0	0.0	0.032	-0.01	
2.0	0.0	0.0	0.0	0.0	0.006	0.019	
3.0	0.0	0.0	0.0	0.0	-0.029	-0.006	
4.0	0.0	0.0	0.0	0.0	-0.073	0.042	
5.0	0.0	0.0	0.0	0.0	-0.109	0.102	
6.0	0.0	0.0	0.0	0.0	-0.118	0.125	
7.0	0.0	0.0	0.0	0.0	-0.118	0.112	
8.0	0.0	0.0	0.0	0.0	-0.115	0.099	
9.0	0.0	0.0	0.0	0.0	-0.093	0.089	
10.0	0.0	0.0	0.0	0.0	-0.077	0.035	
11.0	0.0	0.0	0.0	0.0	-0.035	-0.003	
12.0	0.0	0.0	0.0	0.0	0.003	-0.045	
13.0	0.0	0.0	0.0	0.0	0.035	-0.096	
14.0	0.0	0.0	0.0	0.0	0.064	-0.128	
15.0	0.0	0.0	0.0	0.0	0.102	-0.134	
0.0	0.0	0.0	0.0	0.0	0.105	-0.153	
1.0	0.0	0.0	0.0	0.0	0.121	-0.141	
2.0	0.0	0.0	0.0	0.0	0.121	-0.125	
3.0	0.0	0.0	0.0	0.0	0.109	-0.093	
4.0	0.0	0.0	0.0	0.0	0.08	-0.038	
5.0	0.0	0.0	0.0	0.0	0.057	0.01	
6.0	0.0	0.0	0.0	0.0	0.016	0.038	
7.0	0.0	0.0	0.0	0.0	-0.029	0.051	
8.0	0.0	0.0	0.0	0.0	-0.073	0.073	
9.0	0.0	0.0	0.0	0.0	-0.093	0.096	
10.0	0.0	0.0	0.0	0.0	-0.102	0.099	
11.0	0.0	0.0	0.0	0.0	-0.109	0.083	
12.0	0.0	0.0	0.0	0.0	-0.118	0.061	
13.0	0.0	0.0	0.0	0.0	-0.118	0.045	
14.0	0.0	0.0	0.0	0.0	-0.089	0.006	
15.0	0.0	0.0	0.0	0.0	-0.054	-0.01	
0.0	0.0	0.0	0.0	0.0	-0.01	-0.038	
1.0	0.0	0.0	0.0	0.0	0.042	-0.083	
2.0	0.0	0.0	0.0	0.0	0.08	-0.105	
3.0	0.0	0.0	0.0	0.0	0.109	-0.121	
4.0	0.0	0.0	0.0	0.0	0.128	-0.118	
5.0	0.0	0.0	0.0	0.0	0.125	-0.102	
6.0	0.0	0.0	0.0	0.0	0.112	-0.102	
7.0	0.0	0.0	0.0	0.0	0.099	-0.08	
8.0	0.0	0.0	0.0	0.0	0.067	-0.038	
9.0	0.0	0.0	0.0	0.0	0.048	0.006	
10.0	0.0	0.0	0.0	0.0	0.01	0.042	
11.0	0.0	0.0	0.0	0.0	-0.035	0.067	
12.0	0.0	0.0	0.0	0.0	-0.083	0.077	
13.0	0.0	0.0	0.0	0.0	-0.115	0.064	
14.0	0.0	0.0	0.0	0.0	-0.137	0.035	
15.0	0.0	0.0	0.0	0.0	-0.118	0.042	
0.0	0.0	0.0	0.0	0.0	-0.118	0.054	
1.0	0.0	0.0	0.0	0.0	-0.128	0.032	
2.0	0.0	0.0	0.0	0.0	-0.086	0.022	
3.0	0.0	0.0	0.0	0.0	-0.045	0.003	
4.0	0.0	0.0	0.0	0.0	0.003	-0.042	
5.0	0.0	0.0	0.0	0.0	0.048	-0.064	
6.0	0.0	0.0	0.0	0.0	0.089	-0.089	
7.0	0.0	0.0	0.0	0.0	0.121	-0.102	
8.0	0.0	0.0	0.0	0.0	0.128	-0.105	
9.0	0.0	0.0	0.0	0.0	0.125	-0.115	
10.0	0.0	0.0	0.0	0.0	0.125	-0.105	
11.0	0.0	0.0	0.0	0.0	0.115	-0.073	
12.0	0.0	0.0	0.0	0.0	0.067	-0.061	
13.0	0.0	0.0	0.0	0.0	0.042	-0.026	
14.0	0.0	0.0	0.0	0.0	0.01	-0.026	
15.0	0.0	0.0	0.0	0.0	-0.038	0.0	
0.0	0.0	0.0	0.0	0.0	-0.08	0.061	
1.0	0.0	0.0	0.0	0.0	-0.109	0.083	
2.0	0.0	0.0	0.0	0.0	-0.128	0.086	
3.0	0.0	0.0	0.0	0.0	-0.134	0.105	
4.0	0.0	0.0	0.0	0.0	-0.121	0.121	
5.0	0.0	0.0	0.0	0.0	-0.109	0.083	
6.0	0.0	0.0	0.0	0.0	-0.064	0.029	
7.0	0.0	0.0	0.0	0.0	-0.038	-0.019	
8.0	0.0	0.0	0.0	0.0	-0.013	-0.064	
9.0	0.0	0.0	0.0	0.0	0.035	-0.08	
10.0	0.0	0.0	0.0	0.0	0.073	-0.093	
11.0	0.0	0.0	0.0	0.0	0.099	-0.102	
12.0	0.0	0.0	0.0	0.0	0.128	-0.093	
13.0	0.0	0.0	0.0	0.0	0.131	-0.115	
14.0	0.0	0.0	0.0	0.0	0.125	-0.134	
15.0	0.0	0.0	0.0	0.0	0.109	-0.112	
0.0	0.0	0.0	0.0	0.0	0.077	-0.067	
1.0	0.0	0.0	0.0	0.0	0.045	-0.029	
2.0	0.0	0.0	0.0	0.0	-0.003	0.01	
3.0	0.0	0.0	0.0	0.0	-0.035	0.07	
4.0	0.0	0.0	0.0	0.0	-0.077	0.115	
5.0	0.0	0.0	0.0	0.0	-0.125	0.128	
6.0	0.0	0.0	0.0	0.0	-0.137	0.109	
7.0	0.0	0.0	0.0	0.0	-0.131	0.089	
8.0	0.0	0.0	0.0	0.0	-0.128	0.067	
9.0	0.0	0.0	0.0	0.0	-0.109	0.048	
10.0	0.0	0.0	0.0	0.0	-0.061	0.016	
11.0	0.0	0.0	0.0	0.0	-0.035	-0.022	
12.0	0.0	0.0	0.0	0.0	-0.013	-0.051	
13.0	0.0	0.0	0.0	0.0	0.022	-0.08	
14.0	0.0	0.0	0.0	0.0	0.077	-0.105	
15.0	0.0	0.0	0.0	0.0	0.112	-0.131	
0.0	0.0	0.0	0.0	0.0	0.131	-0.121	
1.0	0.0	0.0	0.0	0.0	0.137	-0.125	
2.0	0.0	0.0	0.0	0.0	0.128	-0.128	
3.0	0.0	0.0	0.0	0.0	0.109	-0.083	
4.0	0.0	0.0	0.0	0.0	0.083	-0.045	
5.0	0.0	0.0	0.0	0.0	0.029	-0.016	
6.0	0.0	0.0	0.0	0.0	0.003	0.013	
7.0	0.0	0.0	0.0	0.0	-0.038	0.064	
8.0	0.0	0.0	0.0	0.0	-0.083	0.096	
9.0	0.0	0.0	0.0	0.0	-0.102	0.102	
10.0	0.0	0.0	0.0	0.0	-0.128	0.099	
11.0	0.0	0.0	0.0	0.0	-0.137	0.089	
12.0	0.0	0.0	0.0	0.0	-0.125	0.07	
13.0	0.0	0.0	0.0	0.0	-0.109	0.029	
14.0	0.0	0.0	0.0	0.0	-0.083	-0.013	
15.0	0.0	0.0	0.0	0.0	-0.051	-0.029	
0.0	0.0	0.0	0.0	0.0	-0.022	-0.045	
1.0	0.0	0.0	0.0	0.0	0.032	-0.08	
2.0	0.0	0.0	0.0	0.0	0.07	-0.102	
3.0	0.0	0.0	0.0	0.0	0.115	-0.121	
4.0	0.0	0.0	0.0	0.0	0.121	-0.115	
5.0	0.0	0.0	0.0	0.0	0.125	-0.112	
6.0	0.0	0.0	0.0	0.0	0.125	-0.112	
7.0	0.0	0.0	0.0	0.0	0.115	-0.08	
8.0	0.0	0.0	0.0	0.0	0.086	-0.048	
9.0	0.0	0.0	0.0	0.0	0.048	-0.013	
10.0	0.0	0.0	0.0	0.0	0.01	0.016	
11.0	0.0	0.0	0.0	0.0	-0.042	0.051	
12.0	0.0	0.0	0.0	0.0	-0.089	0.083	
13.0	0.0	0.0	0.0	0.0	-0.115	0.099	
14.0	0.0	0.0	0.0	0.0	-0.134	0.093	
15.0	0.0	0.0	0.0	0.0	-0.144	0.096	
0.0	0.0	0.0	0.0	0.0	-0.137	0.077	
1.0	0.0	0.0	0.0	0.0	-0.115	0.048	
2.0	0.0	0.0	0.0	0.0	-0.067	0.003	
3.0	0.0	0.0	0.0	0.0	-0.038	-0.022	
4.0	0.0	0.0	0.0	0.0	-0.003	-0.045	
5.0	0.0	0.0	0.0	0.0	0.042	-0.086	
6.0	0.0	0.0	0.0	0.0	0.093	-0.118	
7.0	0.0	0.0	0.0	0.0	0.096	-0.128	
8.0	0.0	0.0	0.0	0.0	0.112	-0.121	
9.0	0.0	0.0	0.0	0.0	0.125	-0.109	
10.0	0.0	0.0	0.0	0.0	0.131	-0.102	
11.0	0.0	0.0	0.0	0.0	0.105	-0.08	
12.0	0.0	0.0	0.0	0.0	0.08	-0.045	
13.0	0.0	0.0	0.0	0.0	0.042	-0.013	
14.0	0.0	0.0	0.0	0.0	0.01	0.016	
15.0	0.0	0.0	0.0	0.0	-0.032	0.054	
0.0	0.0	0.0	0.0	0.0	-0.083	0.089	
1.0	0.0	0.0	0.0	0.0	-0.115	0.093	
2.0	0.0	0.0	0.0	0.0	-0.125	0.093	
3.0	0.0	0.0	0.0	0.0	-0.134	0.096	
4.0	0.0	0.0	0.0	0.0	-0.125	0.083	
5.0	0.0	0.0	0.0	0.0	-0.109	0.048	
6.0	0.0	0.0	0.0	0.0	-0.077	0.013	
7.0	0.0	0.0	0.0	0.0	-0.042	-0.016	
8.0	0.0	0.0	0.0	0.0	0.0	-0.048	
9.0	0.0	0.0	0.0	0.0	0.045	-0.08	
10.0	0.0	0.0	0.0	0.0	0.083	-0.112	
11.0	0.0	0.0	0.0	0.0	0.102	-0.121	
12.0	0.0	0.0	0.0	0.0	0.121	-0.121	
13.0	0.0	0.0	0.0	0.0	0.131	-0.128	
14.0	0.0	0.0	0.0	0.0	0.134	-0.109	
15.0	0.0	0.0	0.0	0.0	0.109	-0.073	
0.0	0.0	0.0	0.0	0.0	0.077	-0.035	
1.0	0.0	0.0	0.0	0.0	0.051	-0.013	
2.0	0.0	0.0	0.0	0.0	0.01	0.019	
3.0	0.0	0.0	0.0	0.0	-0.032	0.048	
4.0	0.0	0.0	0.0	0.0	-0.077	0.07	
5.0	0.0	0.0	0.0	0.0	-0.109	0.08	
6.0	0.0	0.0	0.0	0.0	-0.137	0.08	
7.0	0.0	0.0	0.0	0.0	-0.147	0.08	
8.0	0.0	0.0	0.0	0.0	-0.16	0.067	
9.0	0.0	0.0	0.0	0.0	-0.163	0.042	
10.0	0.0	0.0	0.0	0.0	-0.141	0.022	
11.0	0.0	0.0	0.0	0.0	-0.083	-0.003	
12.0	0.0	0.0	0.0	0.0	-0.026	-0.045	
13.0	0.0	0.0	0.0	0.0	0.038	-0.077	
14.0	0.0	0.0	0.0	0.0	0.093	-0.115	
15.0	0.0	0.0	0.0	0.0	0.125	-0.121	
0.0	0.0	0.0	0.0	0.0	0.147	-0.125	
1.0	0.0	0.0	0.0	0.0	0.157	-0.109	
2.0	0.0	0.0	0.0	0.0	0.153	-0.093	
3.0	0.0	0.0	0.0	0.0	0.121	-0.08	
4.0	0.0	0.0	0.0	0.0	0.096	-0.035	
5.0	0.0	0.0	0.0	0.0	0.048	-0.01	
6.0	0.0	0.0	0.0	0.0	0.0	0.016	
7.0	0.0	0.0	0.0	0.0	-0.048	0.051	
8.0	0.0	0.0	0.0	0.0	-0.073	0.083	
9.0	0.0	0.0	0.0	0.0	-0.099	0.089	
10.0	0.0	0.0	0.0	0.0	-0.118	0.083	
11.0	0.0	0.0	0.0	0.0	-0.137	0.086	
12.0	0.0	0.0	0.0	0.0	-0.141	0.07	
13.0	0.0	0.0	0.0	0.0	-0.115	0.054	
14.0	0.0	0.0	0.0	0.0	-0.083	0.01	
15.0	0.0	0.0	0.0	0.0	-0.048	-0.026	
0.0	0.0	0.0	0.0	0.0	-0.013	-0.051	
1.0	0.0	0.0	0.0	0.0	0.032	-0.08	
2.0	0.0	0.0	0.0	0.0	0.083	-0.105	
3.0	0.0	0.0	0.0	0.0	0.121	-0.115	
4.0	0.0	0.0	0.0	0.0	0.134	-0.109	
5.0	0.0	0.0	0.0	0.0	0.147	-0.115	
6.0	0.0	0.0	0.0	0.0	0.131	-0.115	
7.0	0.0	0.0	0.0	0.0	0.102	-0.096	
8.0	0.0	0.0	0.0	0.0	0.07	-0.045	
9.0	0.0	0.0	0.0	0.0	0.038	-0.013	
10.0	0.0	0.0	0.0	0.0	0.0	0.013	
11.0	0.0	0.0	0.0	0.0	-0.038	0.061	
12.0	0.0	0.0	0.0	0.0	-0.083	0.073	
13.0	0.0	0.0	0.0	0.0	-0.118	0.089	
14.0	0.0	0.0	0.0	0.0	-0.134	0.086	
15.0	0.0	0.0	0.0	0.0	-0.141	0.096	
0.0	0.0	0.0	0.0	0.0	-0.121	0.112	
1.0	0.0	0.0	0.0	0.0	-0.112	0.064	
2.0	0.0	0.0	0.0	0.0	-0.08	0.01	
3.0	0.0	0.0	0.0	0.0	-0.029	-0.013	
4.0	0.0	0.0	0.0	0.0	-0.006	-0.048	
5.0	0.0	0.0	0.0	0.0	0.032	-0.089	
6.0	0.0	0.0	0.0	0.0	0.077	-0.118	
7.0	0.0	0.0	0.0	0.0	0.102	-0.121	
8.0	0.0	0.0	0.0	0.0	0.128	-0.125	
9.0	0.0	0.0	0.0	0.0	0.15	-0.118	
10.0	0.0	0.0	0.0	0.0	0.141	-0.115	
11.0	0.0	0.0	0.0	0.0	0.112	-0.089	
12.0	0.0	0.0	0.0	0.0	0.061	-0.042	
13.0	0.0	0.0	0.0	0.0	0.019	-0.01	
14.0	0.0	0.0	0.0	0.0	-0.026	0.01	
15.0	0.0	0.0	0.0	0.0	-0.061	0.029	
0.0	0.0	0.0	0.0	0.0	-0.102	0.057	
1.0	0.0	0.0	0.0	0.0	-0.121	0.089	
2.0	0.0	0.0	0.0	0.0	-0.125	0.115	
3.0	0.0	0.0	0.0	0.0	-0.118	0.109	
4.0	0.0	0.0	0.0	0.0	-0.112	0.089	
5.0	0.0	0.0	0.0	0.0	-0.102	0.048	
6.0	0.0	0.0	0.0	0.0	-0.073	0.006	
7.0	0.0	0.0	0.0	0.0	-0.035	-0.016	
8.0	0.0	0.0	0.0	0.0	0.0	-0.051	
9.0	0.0	0.0	0.0	0.0	0.051	-0.08	
10.0	0.0	0.0	0.0	0.0	0.089	-0.112	
11.0	0.0	0.0	0.0	0.0	0.121	-0.115	
12.0	0.0	0.0	0.0	0.0	0.137	-0.121	
13.0	0.0	0.0	0.0	0.0	0.147	-0.109	
14.0	0.0	0.0	0.0	0.0	0.134	-0.105	
15.0	0.0	0.0	0.0	0.0	0.109	-0.08	
0.0	0.0	0.0	0.0	0.0	0.08	-0.048	
1.0	0.0	0.0	0.0	0.0	0.048	-0.013	
2.0	0.0	0.0	0.0	0.0	0.003	0.019	
3.0	0.0	0.0	0.0	0.0	-0.061	0.048	
4.0	0.0	0.0	0.0	0.0	-0.112	0.077	
5.0	0.0	0.0	0.0	0.0	-0.15	0.086	
6.0	0.0	0.0	0.0	0.0	-0.172	0.086	
7.0	0.0	0.0	0.0	0.0	-0.176	0.093	
8.0	0.0	0.0	0.0	0.0	-0.15	0.089	
9.0	0.0	0.0	0.0	0.0	-0.102	0.051	
10.0	0.0	0.0	0.0	0.0	-0.073	0.019	
11.0	0.0	0.0	0.0	0.0	-0.029	-0.013	
12.0	0.0	0.0	0.0	0.0	0.019	-0.042	
13.0	0.0	0.0	0.0	0.0	0.054	-0.08	
14.0	0.0	0.0	0.0	0.0	0.089	-0.105	
15.0	0.0	0.0	0.0	0.0	0.115	-0.128	
0.0	0.0	0.0	0.0	0.0	0.134	-0.141	
1.0	0.0	0.0	0.0	0.0	0.131	-0.144	
2.0	0.0	0.0	0.0	0.0	0.128	-0.125	
3.0	0.0	0.0	0.0	0.0	0.115	-0.077	
4.0	0.0	0.0	0.0	0.0	0.073	-0.035	
5.0	0.0	0.0	0.0	0.0	0.019	0.0	
6.0	0.0	0.0	0.0	0.0	0.0	0.035	
7.0	0.0	0.0	0.0	0.0	-0.035	0.067	
8.0	0.0	0.0	0.0	0.0	-0.08	0.089	
9.0	0.0	0.0	0.0	0.0	-0.099	0.096	
10.0	0.0	0.0	0.0	0.0	-0.125	0.07	
11.0	0.0	0.0	0.0	0.0	-0.134	0.061	
12.0	0.0	0.0	0.0	0.0	-0.15	0.061	
13.0	0.0	0.0	0.0	0.0	-0.112	0.064	
14.0	0.0	0.0	0.0	0.0	-0.08	0.038	
15.0	0.0	0.0	0.0	0.0	-0.045	-0.003	
0.0	0.0	0.0	0.0	0.0	-0.013	-0.045	
1.0	0.0	0.0	0.0	0.0	0.019	-0.086	
2.0	0.0	0.0	0.0	0.0	0.077	-0.105	
3.0	0.0	0.0	0.0	0.0	0.131	-0.128	
4.0	0.0	0.0	0.0	0.0	0.153	-0.134	
5.0	0.0	0.0	0.0	0.0	0.144	-0.125	
6.0	0.0	0.0	0.0	0.0	0.141	-0.109	
7.0	0.0	0.0	0.0	0.0	0.115	-0.073	
8.0	0.0	0.0	0.0	0.0	0.067	-0.045	
9.0	0.0	0.0	0.0	0.0	0.038	-0.013	
10.0	0.0	0.0	0.0	0.0	0.006	0.019	
11.0	0.0	0.0	0.0	0.0	-0.042	0.054	
12.0	0.0	0.0	0.0	0.0	-0.096	0.083	
13.0	0.0	0.0	0.0	0.0	-0.118	0.099	
14.0	0.0	0.0	0.0	0.0	-0.128	0.089	
15.0	0.0	0.0	0.0	0.0	-0.141	0.086	
0.0	0.0	0.0	0.0	0.0	-0.144	0.083	
1.0	0.0	0.0	0.0	0.0	-0.115	0.057	
2.0	0.0	0.0	0.0	0.0	-0.083	-0.006	
3.0	0.0	0.0	0.0	0.0	-0.045	-0.038	
4.0	0.0	0.0	0.0	0.0	0.0	-0.038	
5.0	0.0	0.0	0.0	0.0	0.054	-0.077	
6.0	0.0	0.0	0.0	0.0	0.102	-0.102	
7.0	0.0	0.0	0.0	0.0	0.125	-0.125	
8.0	0.0	0.0	0.0	0.0	0.144	-0.134	
9.0	0.0	0.0	0.0	0.0	0.137	-0.131	
10.0	0.0	0.0	0.0	0.0	0.131	-0.115	
11.0	0.0	0.0	0.0	0.0	0.105	-0.086	
12.0	0.0	0.0	0.0	0.0	0.064	-0.051	
13.0	0.0	0.0	0.0	0.0	0.042	0.0	
14.0	0.0	0.0	0.0	0.0	0.016	0.035	
15.0	0.0	0.0	0.0	0.0	-0.032	0.057	
0.0	0.0	0.0	0.0	0.0	-0.086	0.077	
1.0	0.0	0.0	0.0	0.0	-0.121	0.096	
2.0	0.0	0.0	0.0	0.0	-0.15	0.099	
3.0	0.0	0.0	0.0	0.0	-0.163	0.08	
4.0	0.0	0.0	0.0	0.0	-0.166	0.073	
5.0	0.0	0.0	0.0	0.0	-0.125	0.051	
6.0	0.0	0.0	0.0	0.0	-0.077	0.013	
7.0	0.0	0.0	0.0	0.0	-0.026	-0.006	
8.0	0.0	0.0	0.0	0.0	0.019	-0.042	
9.0	0.0	0.0	0.0	0.0	0.045	-0.083	
10.0	0.0	0.0	0.0	0.0	0.086	-0.112	
11.0	0.0	0.0	0.0	0.0	0.125	-0.128	
12.0	0.0	0.0	0.0	0.0	0.153	-0.131	
13.0	0.0	0.0	0.0	0.0	0.16	-0.115	
14.0	0.0	0.0	0.0	0.0	0.153	-0.121	
15.0	0.0	0.0	0.0	0.0	0.128	-0.089	
0.0	0.0	0.0	0.0	0.0	0.08	-0.045	
1.0	0.0	0.0	0.0	0.0	0.045	-0.01	
2.0	0.0	0.0	0.0	0.0	0.0	0.019	
3.0	0.0	0.0	0.0	0.0	-0.086	0.048	
4.0	0.0	0.0	0.0	0.0	-0.121	0.073	
5.0	0.0	0.0	0.0	0.0	-0.16	0.089	
6.0	0.0	0.0	0.0	0.0	-0.147	0.109	
7.0	0.0	0.0	0.0	0.0	-0.141	0.105	
8.0	0.0	0.0	0.0	0.0	-0.125	0.08	
9.0	0.0	0.0	0.0	0.0	-0.105	0.048	
10.0	0.0	0.0	0.0	0.0	-0.102	0.016	
11.0	0.0	0.0	0.0	0.0	-0.042	-0.016	
12.0	0.0	0.0	0.0	0.0	0.0	-0.045	
13.0	0.0	0.0	0.0	0.0	0.054	-0.083	
14.0	0.0	0.0	0.0	0.0	0.096	-0.105	
15.0	0.0	0.0	0.0	0.0	0.131	-0.121	
0.0	0.0	0.0	0.0	0.0	0.144	-0.137	
1.0	0.0	0.0	0.0	0.0	0.131	-0.131	
2.0	0.0	0.0	0.0	0.0	0.134	-0.118	
3.0	0.0	0.0	0.0	0.0	0.096	-0.099	
4.0	0.0	0.0	0.0	0.0	0.054	-0.054	
5.0	0.0	0.0	0.0	0.0	0.013	-0.013	
6.0	0.0	0.0	0.0	0.0	-0.045	0.022	
7.0	0.0	0.0	0.0	0.0	-0.064	0.067	
8.0	0.0	0.0	0.0	0.0	-0.083	0.096	
9.0	0.0	0.0	0.0	0.0	-0.099	0.096	
10.0	0.0	0.0	0.0	0.0	-0.118	0.093	
11.0	0.0	0.0	0.0	0.0	-0.121	0.093	
12.0	0.0	0.0	0.0	0.0	-0.121	0.099	
13.0	0.0	0.0	0.0	0.0	-0.099	0.067	
14.0	0.0	0.0	0.0	0.0	-0.064	0.003	
15.0	0.0	0.0	0.0	0.0	-0.01	-0.026	
0.0	0.0	0.0	0.0	0.0	0.022	-0.061	
1.0	0.0	0.0	0.0	0.0	0.057	-0.102	
2.0	0.0	0.0	0.0	0.0	0.109	-0.105	
3.0	0.0	0.0	0.0	0.0	0.137	-0.099	
4.0	0.0	0.0	0.0	0.0	0.115	-0.102	
5.0	0.0	0.0	0.0	0.0	0.112	-0.096	
6.0	0.0	0.0	0.0	0.0	0.105	-0.109	
7.0	0.0	0.0	0.0	0.0	0.077	-0.115	
8.0	0.0	0.0	0.0	0.0	0.022	-0.048	
9.0	0.0	0.0	0.0	0.0	0.01	-0.019	
10.0	0.0	0.0	0.0	0.0	-0.019	-0.016	
11.0	0.0	0.0	0.0	0.0	-0.048	0.026	
12.0	0.0	0.0	0.0	0.0	-0.089	0.112	
13.0	0.0	0.0	0.0	0.0	-0.102	0.179	
14.0	0.0	0.0	0.0	0.0	-0.105	0.179	
15.0	0.0	0.0	0.0	0.0	-0.115	0.131	
0.0	0.0	0.0	0.0	0.0	-0.137	0.061	
1.0	0.0	0.0	0.0	0.0	-0.118	-0.08	
2.0	0.0	0.0	0.0	0.0	-0.089	-0.125	
3.0	0.0	0.0	0.0	0.0	-0.042	-0.042	
4.0	0.0	0.0	0.0	0.0	0.0	-0.048	
5.0	0.0	0.0	0.0	0.0	0.061	-0.067	
6.0	0.0	0.0	0.0	0.0	0.112	-0.08	
7.0	0.0	0.0	0.0	0.0	0.128	-0.115	
8.0	0.0	0.0	0.0	0.0	0.128	-0.118	
9.0	0.0	0.0	0.0	0.0	0.144	-0.099	
10.0	0.0	0.0	0.0	0.0	0.141	-0.089	
11.0	0.0	0.0	0.0	0.0	0.118	-0.08	
12.0	0.0	0.0	0.0	0.0	0.073	-0.029	
13.0	0.0	0.0	0.0	0.0	0.032	-0.003	
14.0	0.0	0.0	0.0	0.0	-0.013	0.019	
15.0	0.0	0.0	0.0	0.0	-0.051	0.064	
0.0	0.0	0.0	0.0	0.0	-0.089	0.096	
1.0	0.0	0.0	0.0	0.0	-0.112	0.086	
2.0	0.0	0.0	0.0	0.0	-0.141	0.054	
3.0	0.0	0.0	0.0	0.0	-0.15	0.035	
4.0	0.0	0.0	0.0	0.0	-0.137	0.064	
5.0	0.0	0.0	0.0	0.0	-0.102	0.064	
6.0	0.0	0.0	0.0	0.0	-0.067	0.013	
7.0	0.0	0.0	0.0	0.0	-0.042	-0.029	
8.0	0.0	0.0	0.0	0.0	-0.019	-0.042	
9.0	0.0	0.0	0.0	0.0	0.032	-0.07	
10.0	0.0	0.0	0.0	0.0	0.086	-0.086	
11.0	0.0	0.0	0.0	0.0	0.115	-0.112	
12.0	0.0	0.0	0.0	0.0	0.134	-0.109	
13.0	0.0	0.0	0.0	0.0	0.15	-0.102	
14.0	0.0	0.0	0.0	0.0	0.134	-0.102	
15.0	0.0	0.0	0.0	0.0	0.109	-0.093	
0.0	0.0	0.0	0.0	0.0	0.077	-0.067	
1.0	0.0	0.0	0.0	0.0	0.042	-0.042	
2.0	0.0	0.0	0.0	0.0	0.003	0.013	
3.0	0.0	0.0	0.0	0.0	-0.029	0.086	
4.0	0.0	0.0	0.0	0.0	-0.089	0.089	
5.0	0.0	0.0	0.0	0.0	-0.115	0.099	
6.0	0.0	0.0	0.0	0.0	-0.141	0.083	
7.0	0.0	0.0	0.0	0.0	-0.144	0.08	
8.0	0.0	0.0	0.0	0.0	-0.131	0.083	
9.0	0.0	0.0	0.0	0.0	-0.105	0.057	
10.0	0.0	0.0	0.0	0.0	-0.08	0.019	
11.0	0.0	0.0	0.0	0.0	-0.035	-0.01	
12.0	0.0	0.0	0.0	0.0	0.006	-0.038	
13.0	0.0	0.0	0.0	0.0	0.051	-0.08	
14.0	0.0	0.0	0.0	0.0	0.093	-0.109	
15.0	0.0	0.0	0.0	0.0	0.109	-0.128	
0.0	0.0	0.0	0.0	0.0	0.112	-0.131	
1.0	0.0	0.0	0.0	0.0	0.137	-0.125	
2.0	0.0	0.0	0.0	0.0	0.125	-0.118	
3.0	0.0	0.0	0.0	0.0	0.121	-0.093	
4.0	0.0	0.0	0.0	0.0	0.089	-0.054	
5.0	0.0	0.0	0.0	0.0	0.045	-0.019	
6.0	0.0	0.0	0.0	0.0	-0.013	0.016	
7.0	0.0	0.0	0.0	0.0	-0.077	0.061	
8.0	0.0	0.0	0.0	0.0	-0.137	0.083	
9.0	0.0	0.0	0.0	0.0	-0.166	0.096	
10.0	0.0	0.0	0.0	0.0	-0.179	0.093	
11.0	0.0	0.0	0.0	0.0	-0.163	0.102	
12.0	0.0	0.0	0.0	0.0	-0.166	0.086	
13.0	0.0	0.0	0.0	0.0	-0.118	0.051	
14.0	0.0	0.0	0.0	0.0	-0.07	0.003	
15.0	0.0	0.0	0.0	0.0	-0.032	-0.003	
0.0	0.0	0.0	0.0	0.0	0.0	-0.042	
1.0	0.0	0.0	0.0	0.0	0.048	-0.089	
2.0	0.0	0.0	0.0	0.0	0.086	-0.118	
3.0	0.0	0.0	0.0	0.0	0.115	-0.15	
4.0	0.0	0.0	0.0	0.0	0.137	-0.141	
5.0	0.0	0.0	0.0	0.0	0.15	-0.131	
6.0	0.0	0.0	0.0	0.0	0.15	-0.115	
7.0	0.0	0.0	0.0	0.0	0.128	-0.067	
8.0	0.0	0.0	0.0	0.0	0.089	-0.032	
9.0	0.0	0.0	0.0	0.0	0.051	-0.003	
10.0	0.0	0.0	0.0	0.0	0.016	0.032	
11.0	0.0	0.0	0.0	0.0	-0.016	0.051	
12.0	0.0	0.0	0.0	0.0	-0.064	0.102	
13.0	0.0	0.0	0.0	0.0	-0.093	0.15	
14.0	0.0	0.0	0.0	0.0	-0.115	0.141	
15.0	0.0	0.0	0.0	0.0	-0.141	0.105	
0.0	0.0	0.0	0.0	0.0	-0.153	0.067	
1.0	0.0	0.0	0.0	0.0	-0.15	-0.006	
2.0	0.0	0.0	0.0	0.0	-0.112	-0.022	
3.0	0.0	0.0	0.0	0.0	-0.026	-0.048	
4.0	0.0	0.0	0.0	0.0	0.016	-0.054	
5.0	0.0	0.0	0.0	0.0	0.051	-0.096	
6.0	0.0	0.0	0.0	0.0	0.096	-0.169	
7.0	0.0	0.0	0.0	0.0	0.125	-0.166	
8.0	0.0	0.0	0.0	0.0	0.141	-0.128	
9.0	0.0	0.0	0.0	0.0	0.131	-0.109	
10.0	0.0	0.0	0.0	0.0	0.137	-0.086	
11.0	0.0	0.0	0.0	0.0	0.121	-0.054	
12.0	0.0	0.0	0.0	0.0	0.077	-0.051	
13.0	0.0	0.0	0.0	0.0	0.042	-0.026	
14.0	0.0	0.0	0.0	0.0	0.0	0.013	
15.0	0.0	0.0	0.0	0.0	-0.045	0.064	
0.0	0.0	0.0	0.0	0.0	-0.089	0.093	
1.0	0.0	0.0	0.0	0.0	-0.128	0.105	
2.0	0.0	0.0	0.0	0.0	-0.144	0.105	
3.0	0.0	0.0	0.0	0.0	-0.144	0.105	
4.0	0.0	0.0	0.0	0.0	-0.144	0.089	
5.0	0.0	0.0	0.0	0.0	-0.128	0.057	
6.0	0.0	0.0	0.0	0.0	-0.086	0.022	
7.0	0.0	0.0	0.0	0.0	-0.042	-0.016	
8.0	0.0	0.0	0.0	0.0	-0.003	-0.048	
9.0	0.0	0.0	0.0	0.0	0.051	-0.089	
10.0	0.0	0.0	0.0	0.0	0.089	-0.115	
11.0	0.0	0.0	0.0	0.0	0.112	-0.128	
12.0	0.0	0.0	0.0	0.0	0.131	-0.137	
13.0	0.0	0.0	0.0	0.0	0.134	-0.109	
14.0	0.0	0.0	0.0	0.0	0.118	-0.093	
15.0	0.0	0.0	0.0	0.0	0.109	-0.077	
0.0	0.0	0.0	0.0	0.0	0.083	-0.048	
1.0	0.0	0.0	0.0	0.0	0.051	-0.048	
2.0	0.0	0.0	0.0	0.0	0.016	-0.006	
3.0	0.0	0.0	0.0	0.0	-0.029	0.054	
4.0	0.0	0.0	0.0	0.0	-0.067	0.086	
5.0	0.0	0.0	0.0	0.0	-0.093	0.105	
6.0	0.0	0.0	0.0	0.0	-0.112	0.102	
7.0	0.0	0.0	0.0	0.0	-0.115	0.109	
8.0	0.0	0.0	0.0	0.0	-0.121	0.096	
9.0	0.0	0.0	0.0	0.0	-0.096	0.057	
10.0	0.0	0.0	0.0	0.0	-0.07	0.006	
11.0	0.0	0.0	0.0	0.0	-0.029	-0.013	
12.0	0.0	0.0	0.0	0.0	-0.013	-0.048	
13.0	0.0	0.0	0.0	0.0	0.01	-0.089	
14.0	0.0	0.0	0.0	0.0	0.057	-0.109	
15.0	0.0	0.0	0.0	0.0	0.099	-0.121	
0.0	0.0	0.0	0.0	0.0	0.105	-0.118	
1.0	0.0	0.0	0.0	0.0	0.077	-0.131	
2.0	0.0	0.0	0.0	0.0	0.057	-0.125	
3.0	0.0	0.0	0.0	0.0	0.061	-0.099	
4.0	0.0	0.0	0.0	0.0	0.035	-0.057	
5.0	0.0	0.0	0.0	0.0	0.006	-0.022	
6.0	0.0	0.0	0.0	0.0	-0.032	0.016	
7.0	0.0	0.0	0.0	0.0	-0.083	0.054	
8.0	0.0	0.0	0.0	0.0	-0.105	0.102	
9.0	0.0	0.0	0.0	0.0	-0.128	0.105	
10.0	0.0	0.0	0.0	0.0	-0.128	0.099	
11.0	0.0	0.0	0.0	0.0	-0.115	0.093	
12.0	0.0	0.0	0.0	0.0	-0.128	0.083	
13.0	0.0	0.0	0.0	0.0	-0.089	0.057	
14.0	0.0	0.0	0.0	0.0	-0.038	0.016	
15.0	0.0	0.0	0.0	0.0	-0.006	-0.042	
0.0	0.0	0.0	0.0	0.0	0.029	-0.077	
1.0	0.0	0.0	0.0	0.0	0.07	-0.077	
2.0	0.0	0.0	0.0	0.0	0.105	-0.109	
3.0	0.0	0.0	0.0	0.0	0.134	-0.131	
4.0	0.0	0.0	0.0	0.0	0.141	-0.112	
5.0	0.0	0.0	0.0	0.0	0.15	-0.096	
6.0	0.0	0.0	0.0	0.0	0.144	-0.096	
7.0	0.0	0.0	0.0	0.0	0.121	-0.08	
8.0	0.0	0.0	0.0	0.0	0.077	-0.064	
9.0	0.0	0.0	0.0	0.0	0.045	-0.022	
10.0	0.0	0.0	0.0	0.0	0.003	0.051	
11.0	0.0	0.0	0.0	0.0	-0.026	0.109	
12.0	0.0	0.0	0.0	0.0	-0.08	0.131	
13.0	0.0	0.0	0.0	0.0	-0.115	0.112	
14.0	0.0	0.0	0.0	0.0	-0.141	-0.032	
15.0	0.0	0.0	0.0	0.0	-0.157	-0.029	
0.0	0.0	0.0	0.0	0.0	-0.131	0.125	
1.0	0.0	0.0	0.0	0.0	-0.102	0.112	
2.0	0.0	0.0	0.0	0.0	-0.08	0.064	
3.0	0.0	0.0	0.0	0.0	-0.073	-0.01	
4.0	0.0	0.0	0.0	0.0	-0.035	-0.099	
5.0	0.0	0.0	0.0	0.0	0.022	-0.157	
6.0	0.0	0.0	0.0	0.0	0.086	-0.105	
7.0	0.0	0.0	0.0	0.0	0.131	-0.061	
8.0	0.0	0.0	0.0	0.0	0.147	-0.131	
9.0	0.0	0.0	0.0	0.0	0.128	-0.214	
10.0	0.0	0.0	0.0	0.0	0.121	-0.163	
11.0	0.0	0.0	0.0	0.0	0.102	-0.077	
12.0	0.0	0.0	0.0	0.0	0.096	-0.042	
13.0	0.0	0.0	0.0	0.0	0.064	-0.013	
14.0	0.0	0.0	0.0	0.0	0.022	0.051	
15.0	0.0	0.0	0.0	0.0	-0.022	0.077	
0.0	0.0	0.0	0.0	0.0	-0.067	0.102	
1.0	0.0	0.0	0.0	0.0	-0.118	0.099	
2.0	0.0	0.0	0.0	0.0	-0.128	0.102	
3.0	0.0	0.0	0.0	0.0	-0.147	0.099	
4.0	0.0	0.0	0.0	0.0	-0.15	0.096	
5.0	0.0	0.0	0.0	0.0	-0.125	0.054	
6.0	0.0	0.0	0.0	0.0	-0.083	0.029	
7.0	0.0	0.0	0.0	0.0	-0.048	-0.003	
8.0	0.0	0.0	0.0	0.0	-0.006	-0.038	
9.0	0.0	0.0	0.0	0.0	0.042	-0.057	
10.0	0.0	0.0	0.0	0.0	0.061	-0.105	
11.0	0.0	0.0	0.0	0.0	0.089	-0.157	
12.0	0.0	0.0	0.0	0.0	0.109	-0.176	
13.0	0.0	0.0	0.0	0.0	0.118	-0.131	
14.0	0.0	0.0	0.0	0.0	0.134	-0.089	
15.0	0.0	0.0	0.0	0.0	0.131	-0.057	
0.0	0.0	0.0	0.0	0.0	0.08	-0.042	
1.0	0.0	0.0	0.0	0.0	0.051	-0.026	
2.0	0.0	0.0	0.0	0.0	0.0	-0.026	
3.0	0.0	0.0	0.0	0.0	-0.048	0.042	
4.0	0.0	0.0	0.0	0.0	-0.086	0.099	
5.0	0.0	0.0	0.0	0.0	-0.115	0.112	
6.0	0.0	0.0	0.0	0.0	-0.134	0.099	
7.0	0.0	0.0	0.0	0.0	-0.134	0.096	
8.0	0.0	0.0	0.0	0.0	-0.134	0.083	
9.0	0.0	0.0	0.0	0.0	-0.109	0.054	
10.0	0.0	0.0	0.0	0.0	-0.073	0.019	
11.0	0.0	0.0	0.0	0.0	-0.035	-0.019	
12.0	0.0	0.0	0.0	0.0	0.0	-0.073	
13.0	0.0	0.0	0.0	0.0	0.035	-0.105	
14.0	0.0	0.0	0.0	0.0	0.073	-0.118	
15.0	0.0	0.0	0.0	0.0	0.105	-0.128	
0.0	0.0	0.0	0.0	0.0	0.125	-0.118	
1.0	0.0	0.0	0.0	0.0	0.131	-0.115	
2.0	0.0	0.0	0.0	0.0	0.134	-0.096	
3.0	0.0	0.0	0.0	0.0	0.112	-0.073	
4.0	0.0	0.0	0.0	0.0	0.077	-0.048	
5.0	0.0	0.0	0.0	0.0	0.035	-0.022	
6.0	0.0	0.0	0.0	0.0	0.006	0.016	
7.0	0.0	0.0	0.0	0.0	-0.038	0.067	
8.0	0.0	0.0	0.0	0.0	-0.089	0.089	
9.0	0.0	0.0	0.0	0.0	-0.128	0.083	
10.0	0.0	0.0	0.0	0.0	-0.131	0.096	
11.0	0.0	0.0	0.0	0.0	-0.131	0.086	
12.0	0.0	0.0	0.0	0.0	-0.125	0.064	
13.0	0.0	0.0	0.0	0.0	-0.115	0.035	
14.0	0.0	0.0	0.0	0.0	-0.073	0.006	
15.0	0.0	0.0	0.0	0.0	-0.032	-0.016	
0.0	0.0	0.0	0.0	0.0	0.0	-0.038	
1.0	0.0	0.0	0.0	0.0	0.051	-0.064	
2.0	0.0	0.0	0.0	0.0	0.093	-0.102	
3.0	0.0	0.0	0.0	0.0	0.125	-0.115	
4.0	0.0	0.0	0.0	0.0	0.137	-0.128	
5.0	0.0	0.0	0.0	0.0	0.144	-0.109	
6.0	0.0	0.0	0.0	0.0	0.141	-0.093	
7.0	0.0	0.0	0.0	0.0	0.125	-0.064	
8.0	0.0	0.0	0.0	0.0	0.077	-0.038	
9.0	0.0	0.0	0.0	0.0	0.032	-0.038	
10.0	0.0	0.0	0.0	0.0	0.0	-0.003	
11.0	0.0	0.0	0.0	0.0	-0.061	0.016	
12.0	0.0	0.0	0.0	0.0	-0.137	0.057	
13.0	0.0	0.0	0.0	0.0	-0.179	0.089	
14.0	0.0	0.0	0.0	0.0	-0.182	0.125	
15.0	0.0	0.0	0.0	0.0	-0.16	0.137	
0.0	0.0	0.0	0.0	0.0	-0.153	0.128	
1.0	0.0	0.0	0.0	0.0	-0.128	0.061	
2.0	0.0	0.0	0.0	0.0	-0.083	0.0	
3.0	0.0	0.0	0.0	0.0	-0.019	-0.032	
4.0	0.0	0.0	0.0	0.0	0.022	-0.064	
5.0	0.0	0.0	0.0	0.0	0.048	-0.141	
6.0	0.0	0.0	0.0	0.0	0.099	-0.118	
7.0	0.0	0.0	0.0	0.0	0.128	-0.134	
8.0	0.0	0.0	0.0	0.0	0.144	-0.15	
9.0	0.0	0.0	0.0	0.0	0.166	-0.099	
10.0	0.0	0.0	0.0	0.0	0.163	-0.073	
11.0	0.0	0.0	0.0	0.0	0.141	-0.032	
12.0	0.0	0.0	0.0	0.0	0.099	-0.016	
13.0	0.0	0.0	0.0	0.0	0.038	-0.073	
14.0	0.0	0.0	0.0	0.0	-0.013	-0.042	
15.0	0.0	0.0	0.0	0.0	-0.064	0.022	
0.0	0.0	0.0	0.0	0.0	-0.109	0.089	
1.0	0.0	0.0	0.0	0.0	-0.134	0.083	
2.0	0.0	0.0	0.0	0.0	-0.134	0.064	
3.0	0.0	0.0	0.0	0.0	-0.128	0.096	
4.0	0.0	0.0	0.0	0.0	-0.125	0.131	
5.0	0.0	0.0	0.0	0.0	-0.105	0.109	
6.0	0.0	0.0	0.0	0.0	-0.067	0.038	
7.0	0.0	0.0	0.0	0.0	-0.042	-0.026	
8.0	0.0	0.0	0.0	0.0	-0.022	-0.134	
9.0	0.0	0.0	0.0	0.0	0.029	-0.08	
10.0	0.0	0.0	0.0	0.0	0.099	-0.038	
11.0	0.0	0.0	0.0	0.0	0.125	-0.099	
12.0	0.0	0.0	0.0	0.0	0.131	-0.195	
13.0	0.0	0.0	0.0	0.0	0.134	-0.141	
14.0	0.0	0.0	0.0	0.0	0.153	-0.042	
15.0	0.0	0.0	0.0	0.0	0.125	-0.08	
0.0	0.0	0.0	0.0	0.0	0.057	-0.073	
1.0	0.0	0.0	0.0	0.0	0.035	0.0	
2.0	0.0	0.0	0.0	0.0	0.0	0.061	
3.0	0.0	0.0	0.0	0.0	-0.048	0.048	
4.0	0.0	0.0	0.0	0.0	-0.089	0.115	
5.0	0.0	0.0	0.0	0.0	-0.109	0.16	
6.0	0.0	0.0	0.0	0.0	-0.131	0.128	
7.0	0.0	0.0	0.0	0.0	-0.137	0.077	
8.0	0.0	0.0	0.0	0.0	-0.147	0.013	
9.0	0.0	0.0	0.0	0.0	-0.125	-0.032	
10.0	0.0	0.0	0.0	0.0	-0.073	0.051	
11.0	0.0	0.0	0.0	0.0	-0.038	0.016	
12.0	0.0	0.0	0.0	0.0	-0.019	-0.093	
13.0	0.0	0.0	0.0	0.0	0.038	-0.153	
14.0	0.0	0.0	0.0	0.0	0.089	-0.153	
15.0	0.0	0.0	0.0	0.0	0.109	-0.131	
0.0	0.0	0.0	0.0	0.0	0.118	-0.086	
1.0	0.0	0.0	0.0	0.0	0.141	-0.061	
2.0	0.0	0.0	0.0	0.0	0.125	-0.192	
3.0	0.0	0.0	0.0	0.0	0.128	-0.045	
4.0	0.0	0.0	0.0	0.0	0.08	0.054	
5.0	0.0	0.0	0.0	0.0	0.051	0.096	
6.0	0.0	0.0	0.0	0.0	0.003	0.029	
7.0	0.0	0.0	0.0	0.0	-0.048	-0.006	
8.0	0.0	0.0	0.0	0.0	-0.102	-0.08	
9.0	0.0	0.0	0.0	0.0	-0.121	0.054	
10.0	0.0	0.0	0.0	0.0	-0.131	0.109	
11.0	0.0	0.0	0.0	0.0	-0.121	0.125	
12.0	0.0	0.0	0.0	0.0	-0.15	0.057	
13.0	0.0	0.0	0.0	0.0	-0.121	-0.042	
14.0	0.0	0.0	0.0	0.0	-0.057	0.048	
15.0	0.0	0.0	0.0	0.0	-0.026	0.042	
0.0	0.0	0.0	0.0	0.0	0.013	-0.003	
1.0	0.0	0.0	0.0	0.0	0.045	-0.042	
2.0	0.0	0.0	0.0	0.0	0.08	-0.093	
3.0	0.0	0.0	0.0	0.0	0.089	-0.144	
4.0	0.0	0.0	0.0	0.0	0.118	-0.093	
5.0	0.0	0.0	0.0	0.0	0.125	-0.093	
6.0	0.0	0.0	0.0	0.0	0.125	-0.073	
7.0	0.0	0.0	0.0	0.0	0.112	-0.022	
8.0	0.0	0.0	0.0	0.0	0.073	-0.013	
9.0	0.0	0.0	0.0	0.0	0.029	-0.08	
10.0	0.0	0.0	0.0	0.0	-0.013	-0.109	
11.0	0.0	0.0	0.0	0.0	-0.048	-0.022	
12.0	0.0	0.0	0.0	0.0	-0.089	0.022	
13.0	0.0	0.0	0.0	0.0	-0.093	0.115	
14.0	0.0	0.0	0.0	0.0	-0.112	0.169	
15.0	0.0	0.0	0.0	0.0	-0.102	0.201	
0.0	0.0	0.0	0.0	0.0	-0.125	0.163	
1.0	0.0	0.0	0.0	0.0	-0.115	0.086	
2.0	0.0	0.0	0.0	0.0	-0.105	-0.016	
3.0	0.0	0.0	0.0	0.0	-0.07	0.032	
4.0	0.0	0.0	0.0	0.0	-0.016	-0.08	
5.0	0.0	0.0	0.0	0.0	0.022	-0.204	
6.0	0.0	0.0	0.0	0.0	0.061	-0.316	
7.0	0.0	0.0	0.0	0.0	0.105	-0.24	
8.0	0.0	0.0	0.0	0.0	0.16	-0.112	
9.0	0.0	0.0	0.0	0.0	0.153	-0.093	
10.0	0.0	0.0	0.0	0.0	0.137	-0.057	
11.0	0.0	0.0	0.0	0.0	0.118	-0.042	
12.0	0.0	0.0	0.0	0.0	0.089	0.0	
13.0	0.0	0.0	0.0	0.0	0.067	0.16	
14.0	0.0	0.0	0.0	0.0	0.016	0.166	
15.0	0.0	0.0	0.0	0.0	-0.051	0.153	
0.0	0.0	0.0	0.0	0.0	-0.112	0.048	
1.0	0.0	0.0	0.0	0.0	-0.176	-0.089	
2.0	0.0	0.0	0.0	0.0	-0.179	-0.013	
3.0	0.0	0.0	0.0	0.0	-0.134	0.042	
4.0	0.0	0.0	0.0	0.0	-0.083	-0.019	
5.0	0.0	0.0	0.0	0.0	-0.061	-0.038	
6.0	0.0	0.0	0.0	0.0	-0.051	0.051	
7.0	0.0	0.0	0.0	0.0	-0.019	0.01	
8.0	0.0	0.0	0.0	0.0	-0.029	-0.102	
9.0	0.0	0.0	0.0	0.0	0.013	-0.083	
10.0	0.0	0.0	0.0	0.0	0.057	-0.073	
11.0	0.0	0.0	0.0	0.0	0.105	-0.121	
12.0	0.0	0.0	0.0	0.0	0.134	-0.134	
13.0	0.0	0.0	0.0	0.0	0.147	-0.045	
14.0	0.0	0.0	0.0	0.0	0.121	-0.032	
15.0	0.0	0.0	0.0	0.0	0.105	-0.051	
0.0	0.0	0.0	0.0	0.0	0.073	-0.006	
1.0	0.0	0.0	0.0	0.0	0.051	0.022	
2.0	0.0	0.0	0.0	0.0	0.01	0.029	
3.0	0.0	0.0	0.0	0.0	-0.048	0.013	
4.0	0.0	0.0	0.0	0.0	-0.089	0.073	
5.0	0.0	0.0	0.0	0.0	-0.112	0.153	
6.0	0.0	0.0	0.0	0.0	-0.137	0.096	
7.0	0.0	0.0	0.0	0.0	-0.179	0.022	
8.0	0.0	0.0	0.0	0.0	-0.185	-0.048	
9.0	0.0	0.0	0.0	0.0	-0.105	-0.022	
10.0	0.0	0.0	0.0	0.0	-0.022	0.089	
11.0	0.0	0.0	0.0	0.0	0.019	0.089	
12.0	0.0	0.0	0.0	0.0	0.038	0.016	
13.0	0.0	0.0	0.0	0.0	0.022	-0.208	
14.0	0.0	0.0	0.0	0.0	0.077	-0.208	
15.0	0.0	0.0	0.0	0.0	0.163	-0.093	
0.0	0.0	0.0	0.0	0.0	0.166	0.019	
1.0	0.0	0.0	0.0	0.0	0.153	0.224	
2.0	0.0	0.0	0.0	0.0	0.077	-0.029	
3.0	0.0	0.0	0.0	0.0	-0.006	-0.319	
4.0	0.0	0.0	0.0	0.0	0.006	-0.393	
5.0	0.0	0.0	0.0	0.0	0.038	-0.281	
6.0	0.0	0.0	0.0	0.0	0.035	0.013	
7.0	0.0	0.0	0.0	0.0	-0.042	0.016	
8.0	0.0	0.0	0.0	0.0	-0.086	0.105	
9.0	0.0	0.0	0.0	0.0	-0.089	0.137	
10.0	0.0	0.0	0.0	0.0	-0.083	0.086	
11.0	0.0	0.0	0.0	0.0	-0.112	0.115	
12.0	0.0	0.0	0.0	0.0	-0.144	0.147	
13.0	0.0	0.0	0.0	0.0	-0.125	0.099	
14.0	0.0	0.0	0.0	0.0	-0.073	0.029	
15.0	0.0	0.0	0.0	0.0	-0.045	0.026	
0.0	0.0	0.0	0.0	0.0	-0.003	0.035	
1.0	0.0	0.0	0.0	0.0	0.038	0.003	
2.0	0.0	0.0	0.0	0.0	0.077	-0.032	
3.0	0.0	0.0	0.0	0.0	0.102	-0.093	
4.0	0.0	0.0	0.0	0.0	0.141	-0.16	
5.0	0.0	0.0	0.0	0.0	0.153	-0.083	
6.0	0.0	0.0	0.0	0.0	0.15	0.016	
7.0	0.0	0.0	0.0	0.0	0.121	-0.029	
8.0	0.0	0.0	0.0	0.0	0.057	-0.051	
9.0	0.0	0.0	0.0	0.0	0.003	-0.131	
10.0	0.0	0.0	0.0	0.0	-0.057	-0.125	
11.0	0.0	0.0	0.0	0.0	-0.064	0.006	
12.0	0.0	0.0	0.0	0.0	-0.064	-0.029	
13.0	0.0	0.0	0.0	0.0	-0.112	0.038	
14.0	0.0	0.0	0.0	0.0	-0.102	0.125	
15.0	0.0	0.0	0.0	0.0	-0.128	0.137	
0.0	0.0	0.0	0.0	0.0	-0.141	0.118	
1.0	0.0	0.0	0.0	0.0	-0.121	-0.003	
2.0	0.0	0.0	0.0	0.0	-0.077	0.013	
3.0	0.0	0.0	0.0	0.0	-0.013	0.157	
4.0	0.0	0.0	0.0	0.0	-0.022	0.188	
5.0	0.0	0.0	0.0	0.0	0.01	0.096	
6.0	0.0	0.0	0.0	0.0	0.07	-0.297	
7.0	0.0	0.0	0.0	0.0	0.131	-0.31	
8.0	0.0	0.0	0.0	0.0	0.109	-0.351	
9.0	0.0	0.0	0.0	0.0	0.163	-0.086	
10.0	0.0	0.0	0.0	0.0	0.141	-0.096	
11.0	0.0	0.0	0.0	0.0	0.057	-0.233	
12.0	0.0	0.0	0.0	0.0	0.061	-0.157	
13.0	0.0	0.0	0.0	0.0	0.057	-0.15	
14.0	0.0	0.0	0.0	0.0	0.061	-0.032	
15.0	0.0	0.0	0.0	0.0	0.0	0.121	
0.0	0.0	0.0	0.0	0.0	-0.067	0.125	
1.0	0.0	0.0	0.0	0.0	-0.102	0.163	
2.0	0.0	0.0	0.0	0.0	-0.121	0.208	
3.0	0.0	0.0	0.0	0.0	-0.147	0.227	
4.0	0.0	0.0	0.0	0.0	-0.163	0.252	
5.0	0.0	0.0	0.0	0.0	-0.134	0.102	
6.0	0.0	0.0	0.0	0.0	-0.125	-0.188	
7.0	0.0	0.0	0.0	0.0	-0.048	-0.086	
8.0	0.0	0.0	0.0	0.0	0.035	-0.01	
9.0	0.0	0.0	0.0	0.0	0.061	-0.019	
10.0	0.0	0.0	0.0	0.0	0.099	-0.083	
11.0	0.0	0.0	0.0	0.0	0.061	-0.271	
12.0	0.0	0.0	0.0	0.0	0.125	-0.15	
13.0	0.0	0.0	0.0	0.0	0.147	0.083	
14.0	0.0	0.0	0.0	0.0	0.153	0.246	
15.0	0.0	0.0	0.0	0.0	0.144	0.137	
0.0	0.0	0.0	0.0	0.0	0.022	-0.217	
1.0	0.0	0.0	0.0	0.0	-0.016	-0.262	
2.0	0.0	0.0	0.0	0.0	-0.019	-0.208	
3.0	0.0	0.0	0.0	0.0	-0.019	-0.141	
4.0	0.0	0.0	0.0	0.0	-0.064	0.022	
5.0	0.0	0.0	0.0	0.0	-0.086	0.153	
6.0	0.0	0.0	0.0	0.0	-0.118	0.051	
7.0	0.0	0.0	0.0	0.0	-0.128	0.089	
8.0	0.0	0.0	0.0	0.0	-0.118	0.067	
9.0	0.0	0.0	0.0	0.0	-0.109	0.147	
10.0	0.0	0.0	0.0	0.0	-0.08	0.045	
11.0	0.0	0.0	0.0	0.0	-0.029	0.01	
12.0	0.0	0.0	0.0	0.0	-0.006	0.077	
13.0	0.0	0.0	0.0	0.0	0.019	0.045	
14.0	0.0	0.0	0.0	0.0	0.061	-0.137	
15.0	0.0	0.0	0.0	0.0	0.112	-0.182	
0.0	0.0	0.0	0.0	0.0	0.128	-0.24	
1.0	0.0	0.0	0.0	0.0	0.125	-0.188	
2.0	0.0	0.0	0.0	0.0	0.125	-0.032	
3.0	0.0	0.0	0.0	0.0	0.102	-0.048	
4.0	0.0	0.0	0.0	0.0	0.089	0.057	
5.0	0.0	0.0	0.0	0.0	0.045	0.029	
6.0	0.0	0.0	0.0	0.0	-0.01	-0.144	
7.0	0.0	0.0	0.0	0.0	-0.051	-0.185	
8.0	0.0	0.0	0.0	0.0	-0.067	0.013	
9.0	0.0	0.0	0.0	0.0	-0.093	0.15	
10.0	0.0	0.0	0.0	0.0	-0.115	0.179	
11.0	0.0	0.0	0.0	0.0	-0.128	0.179	
12.0	0.0	0.0	0.0	0.0	-0.144	0.086	
13.0	0.0	0.0	0.0	0.0	-0.137	-0.057	
14.0	0.0	0.0	0.0	0.0	-0.093	0.013	
15.0	0.0	0.0	0.0	0.0	-0.026	0.051	
0.0	0.0	0.0	0.0	0.0	0.0	0.038	
1.0	0.0	0.0	0.0	0.0	0.045	0.006	
2.0	0.0	0.0	0.0	0.0	0.102	-0.035	
3.0	0.0	0.0	0.0	0.0	0.112	-0.07	
4.0	0.0	0.0	0.0	0.0	0.115	-0.128	
5.0	0.0	0.0	0.0	0.0	0.121	-0.08	
6.0	0.0	0.0	0.0	0.0	0.128	0.01	
7.0	0.0	0.0	0.0	0.0	0.057	-0.051	
8.0	0.0	0.0	0.0	0.0	-0.016	-0.329	
9.0	0.0	0.0	0.0	0.0	0.064	-0.284	
10.0	0.0	0.0	0.0	0.0	0.099	-0.019	
11.0	0.0	0.0	0.0	0.0	0.0	0.067	
12.0	0.0	0.0	0.0	0.0	-0.08	0.083	
13.0	0.0	0.0	0.0	0.0	-0.128	0.141	
14.0	0.0	0.0	0.0	0.0	-0.141	0.182	
15.0	0.0	0.0	0.0	0.0	-0.137	0.131	
0.0	0.0	0.0	0.0	0.0	-0.157	0.045	
1.0	0.0	0.0	0.0	0.0	-0.112	0.016	
2.0	0.0	0.0	0.0	0.0	-0.08	0.019	
3.0	0.0	0.0	0.0	0.0	-0.029	0.048	
4.0	0.0	0.0	0.0	0.0	0.003	-0.176	
5.0	0.0	0.0	0.0	0.0	0.102	-0.003	
6.0	0.0	0.0	0.0	0.0	0.077	-0.07	
7.0	0.0	0.0	0.0	0.0	0.08	-0.118	
8.0	0.0	0.0	0.0	0.0	0.115	-0.16	
9.0	0.0	0.0	0.0	0.0	0.131	-0.144	
10.0	0.0	0.0	0.0	0.0	0.128	-0.083	
11.0	0.0	0.0	0.0	0.0	0.093	-0.073	
12.0	0.0	0.0	0.0	0.0	0.054	-0.006	
13.0	0.0	0.0	0.0	0.0	0.022	0.045	
14.0	0.0	0.0	0.0	0.0	0.003	0.061	
15.0	0.0	0.0	0.0	0.0	-0.029	0.109	
0.0	0.0	0.0	0.0	0.0	-0.102	0.134	
1.0	0.0	0.0	0.0	0.0	-0.134	0.125	
2.0	0.0	0.0	0.0	0.0	-0.169	-0.067	
3.0	0.0	0.0	0.0	0.0	-0.102	-0.061	
4.0	0.0	0.0	0.0	0.0	-0.077	0.038	
5.0	0.0	0.0	0.0	0.0	-0.08	0.093	
6.0	0.0	0.0	0.0	0.0	-0.061	0.061	
7.0	0.0	0.0	0.0	0.0	-0.035	0.042	
8.0	0.0	0.0	0.0	0.0	-0.019	-0.07	
9.0	0.0	0.0	0.0	0.0	0.01	-0.204	
10.0	0.0	0.0	0.0	0.0	0.083	-0.182	
11.0	0.0	0.0	0.0	0.0	0.131	-0.201	
12.0	0.0	0.0	0.0	0.0	0.131	-0.121	
13.0	0.0	0.0	0.0	0.0	0.147	-0.038	
14.0	0.0	0.0	0.0	0.0	0.121	-0.08	
15.0	0.0	0.0	0.0	0.0	0.086	0.0	
0.0	0.0	0.0	0.0	0.0	0.057	0.105	
1.0	0.0	0.0	0.0	0.0	0.029	0.128	
2.0	0.0	0.0	0.0	0.0	-0.022	0.054	
3.0	0.0	0.0	0.0	0.0	-0.045	-0.08	
4.0	0.0	0.0	0.0	0.0	-0.086	-0.042	
5.0	0.0	0.0	0.0	0.0	-0.07	0.07	
6.0	0.0	0.0	0.0	0.0	-0.125	-0.016	
7.0	0.0	0.0	0.0	0.0	-0.134	0.067	
8.0	0.0	0.0	0.0	0.0	-0.141	0.08	
9.0	0.0	0.0	0.0	0.0	-0.105	0.073	
10.0	0.0	0.0	0.0	0.0	-0.089	-0.01	
11.0	0.0	0.0	0.0	0.0	-0.016	0.054	
12.0	0.0	0.0	0.0	0.0	0.013	0.054	
13.0	0.0	0.0	0.0	0.0	0.026	-0.061	
14.0	0.0	0.0	0.0	0.0	0.08	-0.118	
15.0	0.0	0.0	0.0	0.0	0.102	-0.121	
0.0	0.0	0.0	0.0	0.0	0.121	-0.163	
1.0	0.0	0.0	0.0	0.0	0.131	-0.131	
2.0	0.0	0.0	0.0	0.0	0.121	-0.086	
3.0	0.0	0.0	0.0	0.0	0.089	-0.128	
4.0	0.0	0.0	0.0	0.0	0.057	-0.121	
5.0	0.0	0.0	0.0	0.0	0.045	-0.016	
6.0	0.0	0.0	0.0	0.0	0.006	0.035	
7.0	0.0	0.0	0.0	0.0	-0.042	0.089	
8.0	0.0	0.0	0.0	0.0	-0.096	0.128	
9.0	0.0	0.0	0.0	0.0	-0.118	0.121	
10.0	0.0	0.0	0.0	0.0	-0.112	0.141	
11.0	0.0	0.0	0.0	0.0	-0.141	0.061	
12.0	0.0	0.0	0.0	0.0	-0.16	-0.019	
13.0	0.0	0.0	0.0	0.0	-0.112	0.013	
14.0	0.0	0.0	0.0	0.0	-0.051	0.035	
15.0	0.0	0.0	0.0	0.0	0.003	0.042	
0.0	0.0	0.0	0.0	0.0	0.016	-0.038	
1.0	0.0	0.0	0.0	0.0	0.048	-0.112	
2.0	0.0	0.0	0.0	0.0	0.077	-0.089	
3.0	0.0	0.0	0.0	0.0	0.102	-0.115	
4.0	0.0	0.0	0.0	0.0	0.118	-0.115	
5.0	0.0	0.0	0.0	0.0	0.131	-0.093	
6.0	0.0	0.0	0.0	0.0	0.131	-0.089	
7.0	0.0	0.0	0.0	0.0	0.102	-0.086	
8.0	0.0	0.0	0.0	0.0	0.073	-0.035	
9.0	0.0	0.0	0.0	0.0	0.045	-0.01	
10.0	0.0	0.0	0.0	0.0	-0.003	-0.029	
11.0	0.0	0.0	0.0	0.0	-0.045	0.026	
12.0	0.0	0.0	0.0	0.0	-0.086	0.07	
13.0	0.0	0.0	0.0	0.0	-0.115	0.099	
14.0	0.0	0.0	0.0	0.0	-0.131	0.096	
15.0	0.0	0.0	0.0	0.0	-0.125	0.089	
0.0	0.0	0.0	0.0	0.0	-0.134	0.073	
1.0	0.0	0.0	0.0	0.0	-0.115	0.045	
2.0	0.0	0.0	0.0	0.0	-0.08	0.003	
3.0	0.0	0.0	0.0	0.0	-0.038	-0.01	
4.0	0.0	0.0	0.0	0.0	0.006	-0.045	
5.0	0.0	0.0	0.0	0.0	0.045	-0.093	
6.0	0.0	0.0	0.0	0.0	0.08	-0.086	
7.0	0.0	0.0	0.0	0.0	0.112	-0.105	
8.0	0.0	0.0	0.0	0.0	0.125	-0.115	
9.0	0.0	0.0	0.0	0.0	0.125	-0.125	
10.0	0.0	0.0	0.0	0.0	0.134	-0.112	
11.0	0.0	0.0	0.0	0.0	0.125	-0.083	
12.0	0.0	0.0	0.0	0.0	0.08	-0.051	
13.0	0.0	0.0	0.0	0.0	0.045	-0.016	
14.0	0.0	0.0	0.0	0.0	0.01	0.01	
15.0	0.0	0.0	0.0	0.0	-0.032	0.051	
0.0	0.0	0.0	0.0	0.0	-0.077	0.077	
1.0	0.0	0.0	0.0	0.0	-0.102	0.096	
2.0	0.0	0.0	0.0	0.0	-0.115	0.096	
3.0	0.0	0.0	0.0	0.0	-0.121	0.08	
4.0	0.0	0.0	0.0	0.0	-0.128	0.067	
5.0	0.0	0.0	0.0	0.0	-0.105	0.038	
6.0	0.0	0.0	0.0	0.0	-0.08	0.01	
7.0	0.0	0.0	0.0	0.0	-0.035	-0.013	
8.0	0.0	0.0	0.0	0.0	-0.003	-0.048	
9.0	0.0	0.0	0.0	0.0	0.042	-0.073	
10.0	0.0	0.0	0.0	0.0	0.07	-0.109	
11.0	0.0	0.0	0.0	0.0	0.096	-0.115	
12.0	0.0	0.0	0.0	0.0	0.099	-0.125	
13.0	0.0	0.0	0.0	0.0	0.115	-0.112	
14.0	0.0	0.0	0.0	0.0	0.105	-0.109	
15.0	0.0	0.0	0.0	0.0	0.077	-0.089	
0.0	0.0	0.0	0.0	0.0	0.045	-0.048	
1.0	0.0	0.0	0.0	0.0	0.022	0.0	
2.0	0.0	0.0	0.0	0.0	-0.01	0.022	
3.0	0.0	0.0	0.0	0.0	-0.057	0.057	
4.0	0.0	0.0	0.0	0.0	-0.105	0.077	
5.0	0.0	0.0	0.0	0.0	-0.112	0.093	
6.0	0.0	0.0	0.0	0.0	-0.105	0.093	
7.0	0.0	0.0	0.0	0.0	-0.093	0.093	
8.0	0.0	0.0	0.0	0.0	-0.115	0.086	
9.0	0.0	0.0	0.0	0.0	-0.115	0.038	
10.0	0.0	0.0	0.0	0.0	-0.08	0.01	
11.0	0.0	0.0	0.0	0.0	-0.038	-0.016	
12.0	0.0	0.0	0.0	0.0	0.006	-0.038	
13.0	0.0	0.0	0.0	0.0	0.054	-0.07	
14.0	0.0	0.0	0.0	0.0	0.096	-0.109	
15.0	0.0	0.0	0.0	0.0	0.115	-0.131	
0.0	0.0	0.0	0.0	0.0	0.141	-0.121	
1.0	0.0	0.0	0.0	0.0	0.153	-0.109	
2.0	0.0	0.0	0.0	0.0	0.147	-0.105	
3.0	0.0	0.0	0.0	0.0	0.125	-0.093	
4.0	0.0	0.0	0.0	0.0	0.07	-0.054	
5.0	0.0	0.0	0.0	0.0	0.022	-0.032	
6.0	0.0	0.0	0.0	0.0	-0.026	0.006	
7.0	0.0	0.0	0.0	0.0	-0.07	0.038	
8.0	0.0	0.0	0.0	0.0	-0.109	0.073	
9.0	0.0	0.0	0.0	0.0	-0.134	0.112	
10.0	0.0	0.0	0.0	0.0	-0.144	0.102	
11.0	0.0	0.0	0.0	0.0	-0.15	0.096	
12.0	0.0	0.0	0.0	0.0	-0.157	0.077	
13.0	0.0	0.0	0.0	0.0	-0.121	0.045	
14.0	0.0	0.0	0.0	0.0	-0.083	0.003	
15.0	0.0	0.0	0.0	0.0	-0.054	-0.022	
0.0	0.0	0.0	0.0	0.0	-0.029	-0.045	
1.0	0.0	0.0	0.0	0.0	0.022	-0.067	
2.0	0.0	0.0	0.0	0.0	0.077	-0.099	
3.0	0.0	0.0	0.0	0.0	0.112	-0.102	
4.0	0.0	0.0	0.0	0.0	0.157	-0.109	
5.0	0.0	0.0	0.0	0.0	0.179	-0.121	
6.0	0.0	0.0	0.0	0.0	0.182	-0.112	
7.0	0.0	0.0	0.0	0.0	0.147	-0.089	
8.0	0.0	0.0	0.0	0.0	0.102	-0.067	
9.0	0.0	0.0	0.0	0.0	0.089	-0.029	
10.0	0.0	0.0	0.0	0.0	0.064	0.019	
11.0	0.0	0.0	0.0	0.0	0.0	0.057	
12.0	0.0	0.0	0.0	0.0	-0.067	0.073	
13.0	0.0	0.0	0.0	0.0	-0.102	0.089	
14.0	0.0	0.0	0.0	0.0	-0.112	0.099	
15.0	0.0	0.0	0.0	0.0	-0.131	0.093	
0.0	0.0	0.0	0.0	0.0	-0.137	0.086	
1.0	0.0	0.0	0.0	0.0	-0.099	0.048	
2.0	0.0	0.0	0.0	0.0	-0.083	0.006	
3.0	0.0	0.0	0.0	0.0	-0.08	-0.026	
4.0	0.0	0.0	0.0	0.0	-0.032	-0.057	
5.0	0.0	0.0	0.0	0.0	-0.006	-0.099	
6.0	0.0	0.0	0.0	0.0	0.035	-0.112	
7.0	0.0	0.0	0.0	0.0	0.089	-0.105	
8.0	0.0	0.0	0.0	0.0	0.121	-0.105	
9.0	0.0	0.0	0.0	0.0	0.118	-0.115	
10.0	0.0	0.0	0.0	0.0	0.125	-0.115	
11.0	0.0	0.0	0.0	0.0	0.096	-0.096	
12.0	0.0	0.0	0.0	0.0	0.073	-0.064	
13.0	0.0	0.0	0.0	0.0	0.019	-0.016	
14.0	0.0	0.0	0.0	0.0	-0.026	0.026	
15.0	0.0	0.0	0.0	0.0	-0.064	0.073	
0.0	0.0	0.0	0.0	0.0	-0.102	0.096	
1.0	0.0	0.0	0.0	0.0	-0.144	0.096	
2.0	0.0	0.0	0.0	0.0	-0.179	0.08	
3.0	0.0	0.0	0.0	0.0	-0.172	0.089	
4.0	0.0	0.0	0.0	0.0	-0.179	0.067	
5.0	0.0	0.0	0.0	0.0	-0.147	0.035	
6.0	0.0	0.0	0.0	0.0	-0.099	-0.006	
7.0	0.0	0.0	0.0	0.0	-0.01	-0.013	
8.0	0.0	0.0	0.0	0.0	0.07	-0.003	
9.0	0.0	0.0	0.0	0.0	0.118	-0.042	
10.0	0.0	0.0	0.0	0.0	0.15	-0.099	
11.0	0.0	0.0	0.0	0.0	0.182	-0.102	
12.0	0.0	0.0	0.0	0.0	0.201	-0.105	
13.0	0.0	0.0	0.0	0.0	0.172	-0.118	
14.0	0.0	0.0	0.0	0.0	0.157	-0.125	
15.0	0.0	0.0	0.0	0.0	0.102	-0.102	
0.0	0.0	0.0	0.0	0.0	0.051	-0.064	
1.0	0.0	0.0	0.0	0.0	0.016	-0.019	
2.0	0.0	0.0	0.0	0.0	-0.032	0.019	
3.0	0.0	0.0	0.0	0.0	-0.064	0.054	
4.0	0.0	0.0	0.0	0.0	-0.083	0.083	
5.0	0.0	0.0	0.0	0.0	-0.112	0.096	
6.0	0.0	0.0	0.0	0.0	-0.153	0.086	
7.0	0.0	0.0	0.0	0.0	-0.201	0.077	
8.0	0.0	0.0	0.0	0.0	-0.195	0.061	
9.0	0.0	0.0	0.0	0.0	-0.153	0.045	
10.0	0.0	0.0	0.0	0.0	-0.109	-0.006	
11.0	0.0	0.0	0.0	0.0	-0.067	-0.029	
12.0	0.0	0.0	0.0	0.0	0.0	-0.051	
13.0	0.0	0.0	0.0	0.0	0.073	-0.08	
14.0	0.0	0.0	0.0	0.0	0.118	-0.112	
15.0	0.0	0.0	0.0	0.0	0.153	-0.105	
0.0	0.0	0.0	0.0	0.0	0.166	-0.096	
1.0	0.0	0.0	0.0	0.0	0.153	-0.102	
2.0	0.0	0.0	0.0	0.0	0.125	-0.105	
3.0	0.0	0.0	0.0	0.0	0.089	-0.096	
4.0	0.0	0.0	0.0	0.0	0.057	-0.067	
5.0	0.0	0.0	0.0	0.0	0.042	-0.022	
6.0	0.0	0.0	0.0	0.0	0.019	0.019	
7.0	0.0	0.0	0.0	0.0	-0.022	0.057	
8.0	0.0	0.0	0.0	0.0	-0.051	0.096	
9.0	0.0	0.0	0.0	0.0	-0.077	0.112	
10.0	0.0	0.0	0.0	0.0	-0.099	0.105	
11.0	0.0	0.0	0.0	0.0	-0.121	0.093	
12.0	0.0	0.0	0.0	0.0	-0.176	0.067	
13.0	0.0	0.0	0.0	0.0	-0.157	0.045	
14.0	0.0	0.0	0.0	0.0	-0.121	0.01	
15.0	0.0	0.0	0.0	0.0	-0.086	-0.026	
0.0	0.0	0.0	0.0	0.0	-0.035	-0.035	
1.0	0.0	0.0	0.0	0.0	0.01	-0.073	
2.0	0.0	0.0	0.0	0.0	0.064	-0.118	
3.0	0.0	0.0	0.0	0.0	0.121	-0.137	
4.0	0.0	0.0	0.0	0.0	0.157	-0.131	
5.0	0.0	0.0	0.0	0.0	0.182	-0.125	
6.0	0.0	0.0	0.0	0.0	0.192	-0.109	
7.0	0.0	0.0	0.0	0.0	0.166	-0.086	
8.0	0.0	0.0	0.0	0.0	0.118	-0.042	
9.0	0.0	0.0	0.0	0.0	0.07	-0.013	
10.0	0.0	0.0	0.0	0.0	0.032	0.016	
11.0	0.0	0.0	0.0	0.0	-0.038	0.045	
12.0	0.0	0.0	0.0	0.0	-0.099	0.08	
13.0	0.0	0.0	0.0	0.0	-0.137	0.093	
14.0	0.0	0.0	0.0	0.0	-0.157	0.096	
15.0	0.0	0.0	0.0	0.0	-0.16	0.096	
0.0	0.0	0.0	0.0	0.0	-0.153	0.08	
1.0	0.0	0.0	0.0	0.0	-0.131	0.051	
2.0	0.0	0.0	0.0	0.0	-0.089	0.01	
3.0	0.0	0.0	0.0	0.0	-0.051	-0.022	
4.0	0.0	0.0	0.0	0.0	-0.022	-0.045	
5.0	0.0	0.0	0.0	0.0	0.019	-0.093	
6.0	0.0	0.0	0.0	0.0	0.048	-0.118	
7.0	0.0	0.0	0.0	0.0	0.086	-0.125	
8.0	0.0	0.0	0.0	0.0	0.112	-0.125	
9.0	0.0	0.0	0.0	0.0	0.125	-0.121	
10.0	0.0	0.0	0.0	0.0	0.157	-0.102	
11.0	0.0	0.0	0.0	0.0	0.16	-0.073	
12.0	0.0	0.0	0.0	0.0	0.096	-0.045	
13.0	0.0	0.0	0.0	0.0	0.048	-0.013	
14.0	0.0	0.0	0.0	0.0	0.019	0.038	
15.0	0.0	0.0	0.0	0.0	-0.013	0.07	
0.0	0.0	0.0	0.0	0.0	-0.077	0.086	
1.0	0.0	0.0	0.0	0.0	-0.115	0.086	
2.0	0.0	0.0	0.0	0.0	-0.112	0.086	
3.0	0.0	0.0	0.0	0.0	-0.112	0.096	
4.0	0.0	0.0	0.0	0.0	-0.115	0.083	
5.0	0.0	0.0	0.0	0.0	-0.099	0.054	
6.0	0.0	0.0	0.0	0.0	-0.093	0.003	
7.0	0.0	0.0	0.0	0.0	-0.064	-0.042	
8.0	0.0	0.0	0.0	0.0	-0.035	-0.07	
9.0	0.0	0.0	0.0	0.0	0.032	-0.089	
10.0	0.0	0.0	0.0	0.0	0.102	-0.102	
11.0	0.0	0.0	0.0	0.0	0.121	-0.121	
12.0	0.0	0.0	0.0	0.0	0.125	-0.125	
13.0	0.0	0.0	0.0	0.0	0.112	-0.115	
14.0	0.0	0.0	0.0	0.0	0.118	-0.105	
15.0	0.0	0.0	0.0	0.0	0.105	-0.08	
0.0	0.0	0.0	0.0	0.0	0.077	-0.038	
1.0	0.0	0.0	0.0	0.0	0.061	-0.01	
2.0	0.0	0.0	0.0	0.0	0.022	0.016	
3.0	0.0	0.0	0.0	0.0	-0.026	0.048	
4.0	0.0	0.0	0.0	0.0	-0.086	0.073	
5.0	0.0	0.0	0.0	0.0	-0.112	0.096	
6.0	0.0	0.0	0.0	0.0	-0.128	0.089	
7.0	0.0	0.0	0.0	0.0	-0.141	0.083	
8.0	0.0	0.0	0.0	0.0	-0.144	0.077	
9.0	0.0	0.0	0.0	0.0	-0.131	0.054	
10.0	0.0	0.0	0.0	0.0	-0.109	0.022	
11.0	0.0	0.0	0.0	0.0	-0.093	-0.013	
12.0	0.0	0.0	0.0	0.0	-0.096	-0.051	
13.0	0.0	0.0	0.0	0.0	-0.013	-0.086	
14.0	0.0	0.0	0.0	0.0	0.086	-0.105	
15.0	0.0	0.0	0.0	0.0	0.128	-0.125	
0.0	0.0	0.0	0.0	0.0	0.15	-0.134	
1.0	0.0	0.0	0.0	0.0	0.16	-0.115	
2.0	0.0	0.0	0.0	0.0	0.172	-0.109	
3.0	0.0	0.0	0.0	0.0	0.163	-0.08	
4.0	0.0	0.0	0.0	0.0	0.134	-0.045	
5.0	0.0	0.0	0.0	0.0	0.099	-0.016	
6.0	0.0	0.0	0.0	0.0	0.048	0.013	
7.0	0.0	0.0	0.0	0.0	-0.038	0.048	
8.0	0.0	0.0	0.0	0.0	-0.112	0.08	
9.0	0.0	0.0	0.0	0.0	-0.15	0.093	
10.0	0.0	0.0	0.0	0.0	-0.163	0.096	
11.0	0.0	0.0	0.0	0.0	-0.163	0.105	
12.0	0.0	0.0	0.0	0.0	-0.169	0.096	
13.0	0.0	0.0	0.0	0.0	-0.163	0.051	
14.0	0.0	0.0	0.0	0.0	-0.137	-0.006	
15.0	0.0	0.0	0.0	0.0	-0.086	-0.026	
0.0	0.0	0.0	0.0	0.0	-0.032	-0.054	
1.0	0.0	0.0	0.0	0.0	0.048	-0.07	
2.0	0.0	0.0	0.0	0.0	0.109	-0.093	
3.0	0.0	0.0	0.0	0.0	0.115	-0.118	
4.0	0.0	0.0	0.0	0.0	0.118	-0.121	
5.0	0.0	0.0	0.0	0.0	0.121	-0.115	
6.0	0.0	0.0	0.0	0.0	0.125	-0.131	
7.0	0.0	0.0	0.0	0.0	0.109	-0.105	
8.0	0.0	0.0	0.0	0.0	0.083	-0.051	
9.0	0.0	0.0	0.0	0.0	0.057	-0.01	
10.0	0.0	0.0	0.0	0.0	0.01	0.022	
11.0	0.0	0.0	0.0	0.0	-0.013	0.061	
12.0	0.0	0.0	0.0	0.0	-0.054	0.096	
13.0	0.0	0.0	0.0	0.0	-0.067	0.105	
14.0	0.0	0.0	0.0	0.0	-0.083	0.112	
15.0	0.0	0.0	0.0	0.0	-0.105	0.099	
0.0	0.0	0.0	0.0	0.0	-0.115	0.07	
1.0	0.0	0.0	0.0	0.0	-0.099	0.045	
2.0	0.0	0.0	0.0	0.0	-0.061	0.003	
3.0	0.0	0.0	0.0	0.0	-0.042	-0.016	
4.0	0.0	0.0	0.0	0.0	-0.019	-0.051	
5.0	0.0	0.0	0.0	0.0	0.019	-0.089	
6.0	0.0	0.0	0.0	0.0	0.061	-0.115	
7.0	0.0	0.0	0.0	0.0	0.099	-0.131	
8.0	0.0	0.0	0.0	0.0	0.096	-0.128	
9.0	0.0	0.0	0.0	0.0	0.099	-0.121	
10.0	0.0	0.0	0.0	0.0	0.121	-0.109	
11.0	0.0	0.0	0.0	0.0	0.112	-0.073	
12.0	0.0	0.0	0.0	0.0	0.073	-0.045	
13.0	0.0	0.0	0.0	0.0	0.048	-0.019	
14.0	0.0	0.0	0.0	0.0	0.016	0.013	
15.0	0.0	0.0	0.0	0.0	-0.013	0.054	
0.0	0.0	0.0	0.0	0.0	-0.064	0.08	
1.0	0.0	0.0	0.0	0.0	-0.093	0.093	
2.0	0.0	0.0	0.0	0.0	-0.099	0.089	
3.0	0.0	0.0	0.0	0.0	-0.096	0.086	
4.0	0.0	0.0	0.0	0.0	-0.099	0.083	
5.0	0.0	0.0	0.0	0.0	-0.086	0.054	
6.0	0.0	0.0	0.0	0.0	-0.093	0.01	
7.0	0.0	0.0	0.0	0.0	-0.109	-0.013	
8.0	0.0	0.0	0.0	0.0	-0.093	-0.048	
9.0	0.0	0.0	0.0	0.0	0.0	-0.08	
10.0	0.0	0.0	0.0	0.0	0.07	-0.105	
11.0	0.0	0.0	0.0	0.0	0.109	-0.115	
12.0	0.0	0.0	0.0	0.0	0.128	-0.125	
13.0	0.0	0.0	0.0	0.0	0.131	-0.121	
14.0	0.0	0.0	0.0	0.0	0.121	-0.118	
15.0	0.0	0.0	0.0	0.0	0.089	-0.093	
0.0	0.0	0.0	0.0	0.0	0.061	-0.051	
1.0	0.0	0.0	0.0	0.0	0.032	-0.019	
2.0	0.0	0.0	0.0	0.0	0.0	0.013	
3.0	0.0	0.0	0.0	0.0	-0.029	0.061	
4.0	0.0	0.0	0.0	0.0	-0.057	0.096	
5.0	0.0	0.0	0.0	0.0	-0.073	0.109	
6.0	0.0	0.0	0.0	0.0	-0.086	0.096	
7.0	0.0	0.0	0.0	0.0	-0.112	0.086	
8.0	0.0	0.0	0.0	0.0	-0.121	0.07	
9.0	0.0	0.0	0.0	0.0	-0.109	0.045	
10.0	0.0	0.0	0.0	0.0	-0.054	0.019	
11.0	0.0	0.0	0.0	0.0	-0.029	-0.019	
12.0	0.0	0.0	0.0	0.0	-0.003	-0.035	
13.0	0.0	0.0	0.0	0.0	0.01	-0.073	
14.0	0.0	0.0	0.0	0.0	0.048	-0.102	
15.0	0.0	0.0	0.0	0.0	0.064	-0.115	
0.0	0.0	0.0	0.0	0.0	0.086	-0.125	
1.0	0.0	0.0	0.0	0.0	0.105	-0.109	
2.0	0.0	0.0	0.0	0.0	0.112	-0.105	
3.0	0.0	0.0	0.0	0.0	0.125	-0.096	
4.0	0.0	0.0	0.0	0.0	0.105	-0.061	
5.0	0.0	0.0	0.0	0.0	0.061	-0.022	
6.0	0.0	0.0	0.0	0.0	0.006	0.026	
7.0	0.0	0.0	0.0	0.0	-0.073	0.064	
8.0	0.0	0.0	0.0	0.0	-0.115	0.086	
9.0	0.0	0.0	0.0	0.0	-0.125	0.099	
10.0	0.0	0.0	0.0	0.0	-0.147	0.089	
11.0	0.0	0.0	0.0	0.0	-0.141	0.089	
12.0	0.0	0.0	0.0	0.0	-0.141	0.08	
13.0	0.0	0.0	0.0	0.0	-0.118	0.054	
14.0	0.0	0.0	0.0	0.0	-0.093	0.006	
15.0	0.0	0.0	0.0	0.0	-0.042	-0.022	
0.0	0.0	0.0	0.0	0.0	-0.003	-0.054	
1.0	0.0	0.0	0.0	0.0	0.054	-0.077	
2.0	0.0	0.0	0.0	0.0	0.096	-0.109	
3.0	0.0	0.0	0.0	0.0	0.134	-0.128	
4.0	0.0	0.0	0.0	0.0	0.157	-0.128	
5.0	0.0	0.0	0.0	0.0	0.141	-0.118	
6.0	0.0	0.0	0.0	0.0	0.125	-0.115	
7.0	0.0	0.0	0.0	0.0	0.118	-0.08	
8.0	0.0	0.0	0.0	0.0	0.089	-0.035	
9.0	0.0	0.0	0.0	0.0	0.064	-0.006	
10.0	0.0	0.0	0.0	0.0	0.029	0.019	
11.0	0.0	0.0	0.0	0.0	-0.029	0.051	
12.0	0.0	0.0	0.0	0.0	-0.093	0.083	
13.0	0.0	0.0	0.0	0.0	-0.137	0.08	
14.0	0.0	0.0	0.0	0.0	-0.137	0.093	
15.0	0.0	0.0	0.0	0.0	-0.144	0.105	
0.0	0.0	0.0	0.0	0.0	-0.166	0.083	
1.0	0.0	0.0	0.0	0.0	-0.144	0.048	
2.0	0.0	0.0	0.0	0.0	-0.08	-0.003	
3.0	0.0	0.0	0.0	0.0	-0.029	-0.026	
4.0	0.0	0.0	0.0	0.0	-0.003	-0.048	
5.0	0.0	0.0	0.0	0.0	0.048	-0.07	
6.0	0.0	0.0	0.0	0.0	0.099	-0.096	
7.0	0.0	0.0	0.0	0.0	0.118	-0.118	
8.0	0.0	0.0	0.0	0.0	0.15	-0.141	
9.0	0.0	0.0	0.0	0.0	0.176	-0.131	
10.0	0.0	0.0	0.0	0.0	0.172	-0.125	
11.0	0.0	0.0	0.0	0.0	0.157	-0.109	
12.0	0.0	0.0	0.0	0.0	0.128	-0.064	
