# OpenSignals Text File Format. Version 1
# {"88:6B:0F:F0:D6:9F": {"position": 0, "device": "bitalino_rev", "device name": "88:6B:0F:F0:D6:9F", "device connection": "BTH88:6B:0F:F0:D6:9F", "sampling rate": 1000, "resolution": [4, 1, 1, 1, 1, 10, 10], "firmware version": 1282, "comments": "", "keywords": "", "mode": 0, "sync interval": 2, "date": "2025-10-22", "time": "14:1:38.168", "channels": [3, 4], "sensor": ["EMGBITREV", "EMGBITREV"], "label": ["A3", "A4"], "column": ["nSeq", "I1", "I2", "O1", "O2", "A3", "A4"], "special": [{}, {}], "digital IO": [0, 0, 1, 1], "convertedValues": 0}}
# EndOfHeader
0	0	0	0	0	508	540	
1	0	0	0	0	512	549	
2	0	0	0	0	506	512	
3	0	0	0	0	504	445	
4	0	0	0	0	515	481	
5	0	0	0	0	517	506	
6	0	0	0	0	515	524	
7	0	0	0	0	511	518	
8	0	0	0	0	510	514	
9	0	0	0	0	512	507	
10	0	0	0	0	505	494	
11	0	0	0	0	509	489	
12	0	0	0	0	515	521	
13	0	0	0	0	515	564	
14	0	0	0	0	508	529	
15	0	0	0	0	502	467	
0	0	0	0	0	511	506	
1	0	0	0	0	512	524	
2	0	0	0	0	513	524	
3	0	0	0	0	511	478	
4	0	0	0	0	509	473	
5	0	0	0	0	520	480	
6	0	0	0	0	513	448	
7	0	0	0	0	511	498	
8	0	0	0	0	513	537	
9	0	0	0	0	513	547	
10	0	0	0	0	514	566	
11	0	0	0	0	508	552	
12	0	0	0	0	504	469	
13	0	0	0	0	507	428	
14	0	0	0	0	518	466	
15	0	0	0	0	526	540	
0	0	0	0	0	519	582	
1	0	0	0	0	511	549	
2	0	0	0	0	507	442	
3	0	0	0	0	508	438	
4	0	0	0	0	507	467	
5	0	0	0	0	515	520	
6	0	0	0	0	515	534	
7	0	0	0	0	513	535	
8	0	0	0	0	505	505	
9	0	0	0	0	510	515	
10	0	0	0	0	511	543	
11	0	0	0	0	513	565	
12	0	0	0	0	512	548	
13	0	0	0	0	506	483	
14	0	0	0	0	508	422	
15	0	0	0	0	514	521	
0	0	0	0	0	511	539	
1	0	0	0	0	512	455	
2	0	0	0	0	512	480	
3	0	0	0	0	510	507	
4	0	0	0	0	512	511	
5	0	0	0	0	508	515	
6	0	0	0	0	505	517	
7	0	0	0	0	508	503	
8	0	0	0	0	519	513	
9	0	0	0	0	527	499	
10	0	0	0	0	525	509	
11	0	0	0	0	516	534	
12	0	0	0	0	509	530	
13	0	0	0	0	507	500	
14	0	0	0	0	506	504	
15	0	0	0	0	503	454	
0	0	0	0	0	515	492	
1	0	0	0	0	516	538	
2	0	0	0	0	513	554	
3	0	0	0	0	514	565	
4	0	0	0	0	510	525	
5	0	0	0	0	511	492	
6	0	0	0	0	500	421	
7	0	0	0	0	508	467	
8	0	0	0	0	503	449	
9	0	0	0	0	510	484	
10	0	0	0	0	519	527	
11	0	0	0	0	520	542	
12	0	0	0	0	507	532	
13	0	0	0	0	510	532	
14	0	0	0	0	515	542	
15	0	0	0	0	511	516	
0	0	0	0	0	508	464	
1	0	0	0	0	519	520	
2	0	0	0	0	519	546	
3	0	0	0	0	514	515	
4	0	0	0	0	504	459	
5	0	0	0	0	506	463	
6	0	0	0	0	513	513	
7	0	0	0	0	515	579	
8	0	0	0	0	519	625	
9	0	0	0	0	503	590	
10	0	0	0	0	485	407	
11	0	0	0	0	507	393	
12	0	0	0	0	519	415	
13	0	0	0	0	520	469	
14	0	0	0	0	519	500	
15	0	0	0	0	518	486	
0	0	0	0	0	526	506	
1	0	0	0	0	521	540	
2	0	0	0	0	517	559	
3	0	0	0	0	509	544	
4	0	0	0	0	507	487	
5	0	0	0	0	507	500	
6	0	0	0	0	506	509	
7	0	0	0	0	512	534	
8	0	0	0	0	511	525	
9	0	0	0	0	503	480	
10	0	0	0	0	507	514	
11	0	0	0	0	512	520	
12	0	0	0	0	512	516	
13	0	0	0	0	512	515	
14	0	0	0	0	513	517	
15	0	0	0	0	512	519	
0	0	0	0	0	511	511	
1	0	0	0	0	510	522	
2	0	0	0	0	512	553	
3	0	0	0	0	505	566	
4	0	0	0	0	507	572	
5	0	0	0	0	505	500	
6	0	0	0	0	509	389	
7	0	0	0	0	515	367	
8	0	0	0	0	522	403	
9	0	0	0	0	525	494	
10	0	0	0	0	515	527	
11	0	0	0	0	509	529	
12	0	0	0	0	512	523	
13	0	0	0	0	514	525	
14	0	0	0	0	512	556	
15	0	0	0	0	511	541	
0	0	0	0	0	505	519	
1	0	0	0	0	501	477	
2	0	0	0	0	513	503	
3	0	0	0	0	516	522	
4	0	0	0	0	507	542	
5	0	0	0	0	515	519	
6	0	0	0	0	524	524	
7	0	0	0	0	525	496	
8	0	0	0	0	515	473	
9	0	0	0	0	512	517	
10	0	0	0	0	505	521	
11	0	0	0	0	510	511	
12	0	0	0	0	508	471	
13	0	0	0	0	505	428	
14	0	0	0	0	508	476	
15	0	0	0	0	513	518	
0	0	0	0	0	513	542	
1	0	0	0	0	510	534	
2	0	0	0	0	508	530	
3	0	0	0	0	512	533	
4	0	0	0	0	510	498	
5	0	0	0	0	512	504	
6	0	0	0	0	515	541	
7	0	0	0	0	513	501	
8	0	0	0	0	508	484	
9	0	0	0	0	506	504	
10	0	0	0	0	510	519	
11	0	0	0	0	513	519	
12	0	0	0	0	511	495	
13	0	0	0	0	512	496	
14	0	0	0	0	514	522	
15	0	0	0	0	512	511	
0	0	0	0	0	504	492	
1	0	0	0	0	508	536	
2	0	0	0	0	515	550	
3	0	0	0	0	511	499	
4	0	0	0	0	521	474	
5	0	0	0	0	521	485	
6	0	0	0	0	516	499	
7	0	0	0	0	512	513	
8	0	0	0	0	503	501	
9	0	0	0	0	507	483	
10	0	0	0	0	511	519	
11	0	0	0	0	508	565	
12	0	0	0	0	504	519	
13	0	0	0	0	500	456	
14	0	0	0	0	510	509	
15	0	0	0	0	518	487	
0	0	0	0	0	519	466	
1	0	0	0	0	522	482	
2	0	0	0	0	521	542	
3	0	0	0	0	519	571	
4	0	0	0	0	507	528	
5	0	0	0	0	502	499	
6	0	0	0	0	519	482	
7	0	0	0	0	516	503	
8	0	0	0	0	512	504	
9	0	0	0	0	515	496	
10	0	0	0	0	520	540	
11	0	0	0	0	511	568	
12	0	0	0	0	492	457	
13	0	0	0	0	487	403	
14	0	0	0	0	511	467	
15	0	0	0	0	523	528	
0	0	0	0	0	520	543	
1	0	0	0	0	516	546	
2	0	0	0	0	513	552	
3	0	0	0	0	510	518	
4	0	0	0	0	507	508	
5	0	0	0	0	513	512	
6	0	0	0	0	512	512	
7	0	0	0	0	510	487	
8	0	0	0	0	522	510	
9	0	0	0	0	518	568	
10	0	0	0	0	504	543	
11	0	0	0	0	492	449	
12	0	0	0	0	506	442	
13	0	0	0	0	518	483	
14	0	0	0	0	519	532	
15	0	0	0	0	503	492	
0	0	0	0	0	496	453	
1	0	0	0	0	501	440	
2	0	0	0	0	516	550	
3	0	0	0	0	531	583	
4	0	0	0	0	512	537	
5	0	0	0	0	516	496	
6	0	0	0	0	526	470	
7	0	0	0	0	524	487	
8	0	0	0	0	508	457	
9	0	0	0	0	513	502	
10	0	0	0	0	513	531	
11	0	0	0	0	510	534	
12	0	0	0	0	512	547	
13	0	0	0	0	507	535	
14	0	0	0	0	508	530	
15	0	0	0	0	504	499	
0	0	0	0	0	508	496	
1	0	0	0	0	514	489	
2	0	0	0	0	512	517	
3	0	0	0	0	511	515	
4	0	0	0	0	512	509	
5	0	0	0	0	510	501	
6	0	0	0	0	506	508	
7	0	0	0	0	511	511	
8	0	0	0	0	510	486	
9	0	0	0	0	515	512	
10	0	0	0	0	513	534	
11	0	0	0	0	507	551	
12	0	0	0	0	516	528	
13	0	0	0	0	521	525	
14	0	0	0	0	516	509	
15	0	0	0	0	513	494	
0	0	0	0	0	511	515	
1	0	0	0	0	505	489	
2	0	0	0	0	504	492	
3	0	0	0	0	503	474	
4	0	0	0	0	507	484	
5	0	0	0	0	508	447	
6	0	0	0	0	508	438	
7	0	0	0	0	512	508	
8	0	0	0	0	511	537	
9	0	0	0	0	514	541	
10	0	0	0	0	515	530	
11	0	0	0	0	514	508	
12	0	0	0	0	520	504	
13	0	0	0	0	523	540	
14	0	0	0	0	513	525	
15	0	0	0	0	506	485	
0	0	0	0	0	507	518	
1	0	0	0	0	511	554	
2	0	0	0	0	511	540	
3	0	0	0	0	520	501	
4	0	0	0	0	523	483	
5	0	0	0	0	516	465	
6	0	0	0	0	512	473	
7	0	0	0	0	501	478	
8	0	0	0	0	504	504	
9	0	0	0	0	511	513	
10	0	0	0	0	505	507	
11	0	0	0	0	511	512	
12	0	0	0	0	511	534	
13	0	0	0	0	515	535	
14	0	0	0	0	516	511	
15	0	0	0	0	516	517	
0	0	0	0	0	507	508	
1	0	0	0	0	507	494	
2	0	0	0	0	510	502	
3	0	0	0	0	514	513	
4	0	0	0	0	516	526	
5	0	0	0	0	513	533	
6	0	0	0	0	509	519	
7	0	0	0	0	510	502	
8	0	0	0	0	507	495	
9	0	0	0	0	508	501	
10	0	0	0	0	505	547	
11	0	0	0	0	500	500	
12	0	0	0	0	521	553	
13	0	0	0	0	515	528	
14	0	0	0	0	508	468	
15	0	0	0	0	515	383	
0	0	0	0	0	513	422	
1	0	0	0	0	512	512	
2	0	0	0	0	506	524	
3	0	0	0	0	516	533	
4	0	0	0	0	515	531	
5	0	0	0	0	514	483	
6	0	0	0	0	516	508	
7	0	0	0	0	519	525	
8	0	0	0	0	511	526	
9	0	0	0	0	508	523	
10	0	0	0	0	505	508	
11	0	0	0	0	509	510	
12	0	0	0	0	512	511	
13	0	0	0	0	517	520	
14	0	0	0	0	514	547	
15	0	0	0	0	506	582	
0	0	0	0	0	495	556	
1	0	0	0	0	496	500	
2	0	0	0	0	504	428	
3	0	0	0	0	516	394	
4	0	0	0	0	531	441	
5	0	0	0	0	527	510	
6	0	0	0	0	513	515	
7	0	0	0	0	513	534	
8	0	0	0	0	513	518	
9	0	0	0	0	518	520	
10	0	0	0	0	514	547	
11	0	0	0	0	504	532	
12	0	0	0	0	502	508	
13	0	0	0	0	508	499	
14	0	0	0	0	509	460	
15	0	0	0	0	517	521	
0	0	0	0	0	510	522	
1	0	0	0	0	510	525	
2	0	0	0	0	511	517	
3	0	0	0	0	507	471	
4	0	0	0	0	508	473	
5	0	0	0	0	512	508	
6	0	0	0	0	509	519	
7	0	0	0	0	503	533	
8	0	0	0	0	515	521	
9	0	0	0	0	524	510	
10	0	0	0	0	518	515	
11	0	0	0	0	517	515	
12	0	0	0	0	510	489	
13	0	0	0	0	512	549	
14	0	0	0	0	511	524	
15	0	0	0	0	509	528	
0	0	0	0	0	514	545	
1	0	0	0	0	517	485	
2	0	0	0	0	509	424	
3	0	0	0	0	510	439	
4	0	0	0	0	508	460	
5	0	0	0	0	512	525	
6	0	0	0	0	515	568	
7	0	0	0	0	509	516	
8	0	0	0	0	508	508	
9	0	0	0	0	510	526	
10	0	0	0	0	510	539	
11	0	0	0	0	513	547	
12	0	0	0	0	509	501	
13	0	0	0	0	499	419	
14	0	0	0	0	500	441	
15	0	0	0	0	520	521	
0	0	0	0	0	505	505	
1	0	0	0	0	511	473	
2	0	0	0	0	525	492	
3	0	0	0	0	521	500	
4	0	0	0	0	523	545	
5	0	0	0	0	512	543	
6	0	0	0	0	508	521	
7	0	0	0	0	509	507	
8	0	0	0	0	510	529	
9	0	0	0	0	518	544	
10	0	0	0	0	509	541	
11	0	0	0	0	501	491	
12	0	0	0	0	514	529	
13	0	0	0	0	516	504	
14	0	0	0	0	511	452	
15	0	0	0	0	508	467	
0	0	0	0	0	513	497	
1	0	0	0	0	516	528	
2	0	0	0	0	512	523	
3	0	0	0	0	508	521	
4	0	0	0	0	510	512	
5	0	0	0	0	508	472	
6	0	0	0	0	512	498	
7	0	0	0	0	513	522	
8	0	0	0	0	513	522	
9	0	0	0	0	513	529	
10	0	0	0	0	515	532	
11	0	0	0	0	519	540	
12	0	0	0	0	511	479	
13	0	0	0	0	504	458	
14	0	0	0	0	506	503	
15	0	0	0	0	513	495	
0	0	0	0	0	520	527	
1	0	0	0	0	509	506	
2	0	0	0	0	504	506	
3	0	0	0	0	504	489	
4	0	0	0	0	513	503	
5	0	0	0	0	519	521	
6	0	0	0	0	520	538	
7	0	0	0	0	511	537	
8	0	0	0	0	514	508	
9	0	0	0	0	509	479	
10	0	0	0	0	499	430	
11	0	0	0	0	511	466	
12	0	0	0	0	516	511	
13	0	0	0	0	512	501	
14	0	0	0	0	508	514	
15	0	0	0	0	512	535	
0	0	0	0	0	513	537	
1	0	0	0	0	509	537	
2	0	0	0	0	510	539	
3	0	0	0	0	511	546	
4	0	0	0	0	511	524	
5	0	0	0	0	512	488	
6	0	0	0	0	505	487	
7	0	0	0	0	510	537	
8	0	0	0	0	511	551	
9	0	0	0	0	504	465	
10	0	0	0	0	507	418	
11	0	0	0	0	515	435	
12	0	0	0	0	524	494	
13	0	0	0	0	516	533	
14	0	0	0	0	510	546	
15	0	0	0	0	511	511	
0	0	0	0	0	521	487	
1	0	0	0	0	520	508	
2	0	0	0	0	512	538	
3	0	0	0	0	513	549	
4	0	0	0	0	514	527	
5	0	0	0	0	506	475	
6	0	0	0	0	510	501	
7	0	0	0	0	509	526	
8	0	0	0	0	500	508	
9	0	0	0	0	500	523	
10	0	0	0	0	507	514	
11	0	0	0	0	508	416	
12	0	0	0	0	534	519	
13	0	0	0	0	531	536	
14	0	0	0	0	509	513	
15	0	0	0	0	504	475	
0	0	0	0	0	503	470	
1	0	0	0	0	512	525	
2	0	0	0	0	516	534	
3	0	0	0	0	507	510	
4	0	0	0	0	508	482	
5	0	0	0	0	512	514	
6	0	0	0	0	513	545	
7	0	0	0	0	512	550	
8	0	0	0	0	512	546	
9	0	0	0	0	506	506	
10	0	0	0	0	502	437	
11	0	0	0	0	511	472	
12	0	0	0	0	519	543	
13	0	0	0	0	513	551	
14	0	0	0	0	513	510	
15	0	0	0	0	508	470	
0	0	0	0	0	513	450	
1	0	0	0	0	512	487	
2	0	0	0	0	518	526	
3	0	0	0	0	516	550	
4	0	0	0	0	497	519	
5	0	0	0	0	503	482	
6	0	0	0	0	523	477	
7	0	0	0	0	523	494	
8	0	0	0	0	518	509	
9	0	0	0	0	516	522	
10	0	0	0	0	509	508	
11	0	0	0	0	501	484	
12	0	0	0	0	510	495	
13	0	0	0	0	515	521	
14	0	0	0	0	515	542	
15	0	0	0	0	510	541	
0	0	0	0	0	507	520	
1	0	0	0	0	504	496	
2	0	0	0	0	508	513	
3	0	0	0	0	512	515	
4	0	0	0	0	517	490	
5	0	0	0	0	523	526	
6	0	0	0	0	508	503	
7	0	0	0	0	504	471	
8	0	0	0	0	516	495	
9	0	0	0	0	519	496	
10	0	0	0	0	516	532	
11	0	0	0	0	519	566	
12	0	0	0	0	516	547	
13	0	0	0	0	504	442	
14	0	0	0	0	498	432	
15	0	0	0	0	505	499	
0	0	0	0	0	499	494	
1	0	0	0	0	506	493	
2	0	0	0	0	517	539	
3	0	0	0	0	516	562	
4	0	0	0	0	522	537	
5	0	0	0	0	515	512	
6	0	0	0	0	510	495	
7	0	0	0	0	505	460	
8	0	0	0	0	510	476	
9	0	0	0	0	518	520	
10	0	0	0	0	515	535	
11	0	0	0	0	513	527	
12	0	0	0	0	513	519	
13	0	0	0	0	517	529	
14	0	0	0	0	514	517	
15	0	0	0	0	510	529	
0	0	0	0	0	500	445	
1	0	0	0	0	504	455	
2	0	0	0	0	511	510	
3	0	0	0	0	514	524	
4	0	0	0	0	515	555	
5	0	0	0	0	518	552	
6	0	0	0	0	509	499	
7	0	0	0	0	499	439	
8	0	0	0	0	504	466	
9	0	0	0	0	515	532	
10	0	0	0	0	523	520	
11	0	0	0	0	514	485	
12	0	0	0	0	515	500	
13	0	0	0	0	515	527	
14	0	0	0	0	509	534	
15	0	0	0	0	507	517	
0	0	0	0	0	512	527	
1	0	0	0	0	511	494	
2	0	0	0	0	510	470	
3	0	0	0	0	512	493	
4	0	0	0	0	512	501	
5	0	0	0	0	512	497	
6	0	0	0	0	518	508	
7	0	0	0	0	518	528	
8	0	0	0	0	513	514	
9	0	0	0	0	509	512	
10	0	0	0	0	507	496	
11	0	0	0	0	508	495	
12	0	0	0	0	512	511	
13	0	0	0	0	511	509	
14	0	0	0	0	508	505	
15	0	0	0	0	503	538	
0	0	0	0	0	503	566	
1	0	0	0	0	508	557	
2	0	0	0	0	509	493	
3	0	0	0	0	525	470	
4	0	0	0	0	531	449	
5	0	0	0	0	517	441	
6	0	0	0	0	513	516	
7	0	0	0	0	508	547	
8	0	0	0	0	516	569	
9	0	0	0	0	512	543	
10	0	0	0	0	503	470	
11	0	0	0	0	511	481	
12	0	0	0	0	508	427	
13	0	0	0	0	509	459	
14	0	0	0	0	508	504	
15	0	0	0	0	503	546	
0	0	0	0	0	508	561	
1	0	0	0	0	515	566	
2	0	0	0	0	513	536	
3	0	0	0	0	506	475	
4	0	0	0	0	510	497	
5	0	0	0	0	515	444	
6	0	0	0	0	512	414	
7	0	0	0	0	523	499	
8	0	0	0	0	519	551	
9	0	0	0	0	513	542	
10	0	0	0	0	513	537	
11	0	0	0	0	516	517	
12	0	0	0	0	513	523	
13	0	0	0	0	509	515	
14	0	0	0	0	512	530	
15	0	0	0	0	507	515	
0	0	0	0	0	513	518	
1	0	0	0	0	508	474	
2	0	0	0	0	507	470	
3	0	0	0	0	512	520	
4	0	0	0	0	512	531	
5	0	0	0	0	510	525	
6	0	0	0	0	509	516	
7	0	0	0	0	509	525	
8	0	0	0	0	502	510	
9	0	0	0	0	505	493	
10	0	0	0	0	515	507	
11	0	0	0	0	519	532	
12	0	0	0	0	511	536	
13	0	0	0	0	524	489	
14	0	0	0	0	518	435	
15	0	0	0	0	518	476	
0	0	0	0	0	524	553	
1	0	0	0	0	518	530	
2	0	0	0	0	511	487	
3	0	0	0	0	508	524	
4	0	0	0	0	500	497	
5	0	0	0	0	490	464	
6	0	0	0	0	503	427	
7	0	0	0	0	528	503	
8	0	0	0	0	525	544	
9	0	0	0	0	515	527	
10	0	0	0	0	510	512	
11	0	0	0	0	507	494	
12	0	0	0	0	511	517	
13	0	0	0	0	513	534	
14	0	0	0	0	516	555	
15	0	0	0	0	513	560	
0	0	0	0	0	501	540	
1	0	0	0	0	491	448	
2	0	0	0	0	508	426	
3	0	0	0	0	529	519	
4	0	0	0	0	527	543	
5	0	0	0	0	520	534	
6	0	0	0	0	504	463	
7	0	0	0	0	498	467	
8	0	0	0	0	509	524	
9	0	0	0	0	516	532	
10	0	0	0	0	507	481	
11	0	0	0	0	507	489	
12	0	0	0	0	513	529	
13	0	0	0	0	517	545	
14	0	0	0	0	517	548	
15	0	0	0	0	507	511	
0	0	0	0	0	498	438	
1	0	0	0	0	513	476	
2	0	0	0	0	517	542	
3	0	0	0	0	519	567	
4	0	0	0	0	506	497	
5	0	0	0	0	508	447	
6	0	0	0	0	506	452	
7	0	0	0	0	514	502	
8	0	0	0	0	521	549	
9	0	0	0	0	513	539	
10	0	0	0	0	513	471	
11	0	0	0	0	507	496	
12	0	0	0	0	515	531	
13	0	0	0	0	516	552	
14	0	0	0	0	514	560	
15	0	0	0	0	510	542	
0	0	0	0	0	514	556	
1	0	0	0	0	506	492	
2	0	0	0	0	499	391	
3	0	0	0	0	512	425	
4	0	0	0	0	525	505	
5	0	0	0	0	516	494	
6	0	0	0	0	507	475	
7	0	0	0	0	515	539	
8	0	0	0	0	513	542	
9	0	0	0	0	510	480	
10	0	0	0	0	519	525	
11	0	0	0	0	517	537	
12	0	0	0	0	511	502	
13	0	0	0	0	505	475	
14	0	0	0	0	508	505	
15	0	0	0	0	509	527	
0	0	0	0	0	511	528	
1	0	0	0	0	511	524	
2	0	0	0	0	509	524	
3	0	0	0	0	509	524	
4	0	0	0	0	507	503	
5	0	0	0	0	512	488	
6	0	0	0	0	513	504	
7	0	0	0	0	519	530	
8	0	0	0	0	519	526	
9	0	0	0	0	514	503	
10	0	0	0	0	507	519	
11	0	0	0	0	504	516	
12	0	0	0	0	505	490	
13	0	0	0	0	503	488	
14	0	0	0	0	503	488	
15	0	0	0	0	507	487	
0	0	0	0	0	519	513	
1	0	0	0	0	523	542	
2	0	0	0	0	520	510	
3	0	0	0	0	524	535	
4	0	0	0	0	507	458	
5	0	0	0	0	501	435	
6	0	0	0	0	505	472	
7	0	0	0	0	515	541	
8	0	0	0	0	514	560	
9	0	0	0	0	514	496	
10	0	0	0	0	517	478	
11	0	0	0	0	512	494	
12	0	0	0	0	509	506	
13	0	0	0	0	509	505	
14	0	0	0	0	516	516	
15	0	0	0	0	516	514	
0	0	0	0	0	513	524	
1	0	0	0	0	516	549	
2	0	0	0	0	515	531	
3	0	0	0	0	511	515	
4	0	0	0	0	506	511	
5	0	0	0	0	506	500	
6	0	0	0	0	510	528	
7	0	0	0	0	510	472	
8	0	0	0	0	510	445	
9	0	0	0	0	518	502	
10	0	0	0	0	510	517	
11	0	0	0	0	507	515	
12	0	0	0	0	506	513	
13	0	0	0	0	515	526	
14	0	0	0	0	517	525	
15	0	0	0	0	511	505	
0	0	0	0	0	509	498	
1	0	0	0	0	512	531	
2	0	0	0	0	515	527	
3	0	0	0	0	512	498	
4	0	0	0	0	513	480	
5	0	0	0	0	514	478	
6	0	0	0	0	511	495	
7	0	0	0	0	512	526	
8	0	0	0	0	512	517	
9	0	0	0	0	516	518	
10	0	0	0	0	507	473	
11	0	0	0	0	506	509	
12	0	0	0	0	511	527	
13	0	0	0	0	510	529	
14	0	0	0	0	503	481	
15	0	0	0	0	509	492	
0	0	0	0	0	515	492	
1	0	0	0	0	520	508	
2	0	0	0	0	518	518	
3	0	0	0	0	521	530	
4	0	0	0	0	511	508	
5	0	0	0	0	510	487	
6	0	0	0	0	509	495	
7	0	0	0	0	512	511	
8	0	0	0	0	505	527	
9	0	0	0	0	509	521	
10	0	0	0	0	513	513	
11	0	0	0	0	514	507	
12	0	0	0	0	515	519	
13	0	0	0	0	511	531	
14	0	0	0	0	508	561	
15	0	0	0	0	518	533	
0	0	0	0	0	527	525	
1	0	0	0	0	519	450	
2	0	0	0	0	496	413	
3	0	0	0	0	495	447	
4	0	0	0	0	510	505	
5	0	0	0	0	519	543	
6	0	0	0	0	511	530	
7	0	0	0	0	508	500	
8	0	0	0	0	511	500	
9	0	0	0	0	514	481	
10	0	0	0	0	511	486	
11	0	0	0	0	513	507	
12	0	0	0	0	513	524	
13	0	0	0	0	512	527	
14	0	0	0	0	511	536	
15	0	0	0	0	510	487	
0	0	0	0	0	513	488	
1	0	0	0	0	519	508	
2	0	0	0	0	519	518	
3	0	0	0	0	512	514	
4	0	0	0	0	505	499	
5	0	0	0	0	507	524	
6	0	0	0	0	510	527	
7	0	0	0	0	508	525	
8	0	0	0	0	508	537	
9	0	0	0	0	512	521	
10	0	0	0	0	516	537	
11	0	0	0	0	511	508	
12	0	0	0	0	507	464	
13	0	0	0	0	510	510	
14	0	0	0	0	504	543	
15	0	0	0	0	500	514	
0	0	0	0	0	516	515	
1	0	0	0	0	525	438	
2	0	0	0	0	516	444	
3	0	0	0	0	513	488	
4	0	0	0	0	519	495	
5	0	0	0	0	523	492	
6	0	0	0	0	515	496	
7	0	0	0	0	516	530	
8	0	0	0	0	513	529	
9	0	0	0	0	505	499	
10	0	0	0	0	509	522	
11	0	0	0	0	508	508	
12	0	0	0	0	508	506	
13	0	0	0	0	514	547	
14	0	0	0	0	513	549	
15	0	0	0	0	505	530	
0	0	0	0	0	505	496	
1	0	0	0	0	507	496	
2	0	0	0	0	507	479	
3	0	0	0	0	516	500	
4	0	0	0	0	519	534	
5	0	0	0	0	505	478	
6	0	0	0	0	500	504	
7	0	0	0	0	512	524	
8	0	0	0	0	530	515	
9	0	0	0	0	522	523	
10	0	0	0	0	520	550	
11	0	0	0	0	508	466	
12	0	0	0	0	507	429	
13	0	0	0	0	511	437	
14	0	0	0	0	511	481	
15	0	0	0	0	512	539	
0	0	0	0	0	507	527	
1	0	0	0	0	505	534	
2	0	0	0	0	508	555	
3	0	0	0	0	511	548	
4	0	0	0	0	505	495	
5	0	0	0	0	515	544	
6	0	0	0	0	510	470	
7	0	0	0	0	513	465	
8	0	0	0	0	513	476	
9	0	0	0	0	513	501	
10	0	0	0	0	514	526	
11	0	0	0	0	520	535	
12	0	0	0	0	514	509	
13	0	0	0	0	507	484	
14	0	0	0	0	512	573	
15	0	0	0	0	512	573	
0	0	0	0	0	502	540	
1	0	0	0	0	500	455	
2	0	0	0	0	511	440	
3	0	0	0	0	515	442	
4	0	0	0	0	525	503	
5	0	0	0	0	528	520	
6	0	0	0	0	520	520	
7	0	0	0	0	511	509	
8	0	0	0	0	510	529	
9	0	0	0	0	507	533	
10	0	0	0	0	500	500	
11	0	0	0	0	497	477	
12	0	0	0	0	510	503	
13	0	0	0	0	508	519	
14	0	0	0	0	516	526	
15	0	0	0	0	525	505	
0	0	0	0	0	518	478	
1	0	0	0	0	515	506	
2	0	0	0	0	517	520	
3	0	0	0	0	513	513	
4	0	0	0	0	508	523	
5	0	0	0	0	503	536	
6	0	0	0	0	507	513	
7	0	0	0	0	508	529	
8	0	0	0	0	506	512	
9	0	0	0	0	505	477	
10	0	0	0	0	514	456	
11	0	0	0	0	523	499	
12	0	0	0	0	511	509	
13	0	0	0	0	508	492	
14	0	0	0	0	514	504	
15	0	0	0	0	518	531	
0	0	0	0	0	512	540	
1	0	0	0	0	509	535	
2	0	0	0	0	508	508	
3	0	0	0	0	508	466	
4	0	0	0	0	503	467	
5	0	0	0	0	508	499	
6	0	0	0	0	510	548	
7	0	0	0	0	515	544	
8	0	0	0	0	508	519	
9	0	0	0	0	509	528	
10	0	0	0	0	523	547	
11	0	0	0	0	526	450	
12	0	0	0	0	519	434	
13	0	0	0	0	510	465	
14	0	0	0	0	504	493	
15	0	0	0	0	507	511	
0	0	0	0	0	509	542	
1	0	0	0	0	515	516	
2	0	0	0	0	512	499	
3	0	0	0	0	515	531	
4	0	0	0	0	516	538	
5	0	0	0	0	503	463	
6	0	0	0	0	501	472	
7	0	0	0	0	510	531	
8	0	0	0	0	507	532	
9	0	0	0	0	510	519	
10	0	0	0	0	517	510	
11	0	0	0	0	521	506	
12	0	0	0	0	512	545	
13	0	0	0	0	505	531	
14	0	0	0	0	502	519	
15	0	0	0	0	510	489	
0	0	0	0	0	536	515	
1	0	0	0	0	523	542	
2	0	0	0	0	508	508	
3	0	0	0	0	489	385	
4	0	0	0	0	513	456	
5	0	0	0	0	515	518	
6	0	0	0	0	513	522	
7	0	0	0	0	513	516	
8	0	0	0	0	513	546	
9	0	0	0	0	505	497	
10	0	0	0	0	510	491	
11	0	0	0	0	509	512	
12	0	0	0	0	512	512	
13	0	0	0	0	513	520	
14	0	0	0	0	522	531	
15	0	0	0	0	517	506	
0	0	0	0	0	512	539	
1	0	0	0	0	511	557	
2	0	0	0	0	510	496	
3	0	0	0	0	508	481	
4	0	0	0	0	519	505	
5	0	0	0	0	515	492	
6	0	0	0	0	490	437	
7	0	0	0	0	495	477	
8	0	0	0	0	508	484	
9	0	0	0	0	526	534	
10	0	0	0	0	528	535	
11	0	0	0	0	522	499	
12	0	0	0	0	513	472	
13	0	0	0	0	514	521	
14	0	0	0	0	506	573	
15	0	0	0	0	498	542	
0	0	0	0	0	509	460	
1	0	0	0	0	510	460	
2	0	0	0	0	518	553	
3	0	0	0	0	519	526	
4	0	0	0	0	511	495	
5	0	0	0	0	508	459	
6	0	0	0	0	506	455	
7	0	0	0	0	511	527	
8	0	0	0	0	510	527	
9	0	0	0	0	508	531	
10	0	0	0	0	509	519	
11	0	0	0	0	512	511	
12	0	0	0	0	513	524	
13	0	0	0	0	513	525	
14	0	0	0	0	519	532	
15	0	0	0	0	514	545	
0	0	0	0	0	504	473	
1	0	0	0	0	516	506	
2	0	0	0	0	517	502	
3	0	0	0	0	514	495	
4	0	0	0	0	511	504	
5	0	0	0	0	510	509	
6	0	0	0	0	503	508	
7	0	0	0	0	508	524	
8	0	0	0	0	511	503	
9	0	0	0	0	513	480	
10	0	0	0	0	510	511	
11	0	0	0	0	504	526	
12	0	0	0	0	508	498	
13	0	0	0	0	515	513	
14	0	0	0	0	514	517	
15	0	0	0	0	512	507	
0	0	0	0	0	505	494	
1	0	0	0	0	512	482	
2	0	0	0	0	521	505	
3	0	0	0	0	515	523	
4	0	0	0	0	512	500	
5	0	0	0	0	510	468	
6	0	0	0	0	508	476	
7	0	0	0	0	512	506	
8	0	0	0	0	520	534	
9	0	0	0	0	519	568	
10	0	0	0	0	506	547	
11	0	0	0	0	498	447	
12	0	0	0	0	514	443	
13	0	0	0	0	522	475	
14	0	0	0	0	518	536	
15	0	0	0	0	505	560	
0	0	0	0	0	502	543	
1	0	0	0	0	513	510	
2	0	0	0	0	515	504	
3	0	0	0	0	520	552	
4	0	0	0	0	504	451	
5	0	0	0	0	503	447	
6	0	0	0	0	514	488	
7	0	0	0	0	513	501	
8	0	0	0	0	516	553	
9	0	0	0	0	518	556	
10	0	0	0	0	508	541	
11	0	0	0	0	497	493	
12	0	0	0	0	511	498	
13	0	0	0	0	513	509	
14	0	0	0	0	518	533	
15	0	0	0	0	512	459	
0	0	0	0	0	512	427	
1	0	0	0	0	515	504	
2	0	0	0	0	512	504	
3	0	0	0	0	510	530	
4	0	0	0	0	512	564	
5	0	0	0	0	512	571	
6	0	0	0	0	508	508	
7	0	0	0	0	511	479	
8	0	0	0	0	514	515	
9	0	0	0	0	515	526	
10	0	0	0	0	510	503	
11	0	0	0	0	502	459	
12	0	0	0	0	511	495	
13	0	0	0	0	519	508	
14	0	0	0	0	513	490	
15	0	0	0	0	507	521	
0	0	0	0	0	511	583	
1	0	0	0	0	511	592	
2	0	0	0	0	503	488	
3	0	0	0	0	515	413	
4	0	0	0	0	516	403	
5	0	0	0	0	526	487	
6	0	0	0	0	518	511	
7	0	0	0	0	507	487	
8	0	0	0	0	517	518	
9	0	0	0	0	517	532	
10	0	0	0	0	512	527	
11	0	0	0	0	511	534	
12	0	0	0	0	510	533	
13	0	0	0	0	507	530	
14	0	0	0	0	505	540	
15	0	0	0	0	506	543	
0	0	0	0	0	505	535	
1	0	0	0	0	511	475	
2	0	0	0	0	508	444	
3	0	0	0	0	513	482	
4	0	0	0	0	519	480	
5	0	0	0	0	522	494	
6	0	0	0	0	518	519	
7	0	0	0	0	515	531	
8	0	0	0	0	511	516	
9	0	0	0	0	510	504	
10	0	0	0	0	504	505	
11	0	0	0	0	500	510	
12	0	0	0	0	507	524	
13	0	0	0	0	512	491	
14	0	0	0	0	519	520	
15	0	0	0	0	511	518	
0	0	0	0	0	504	488	
1	0	0	0	0	504	490	
2	0	0	0	0	504	501	
3	0	0	0	0	507	466	
4	0	0	0	0	515	491	
5	0	0	0	0	523	520	
6	0	0	0	0	521	528	
7	0	0	0	0	521	560	
8	0	0	0	0	513	568	
9	0	0	0	0	508	516	
10	0	0	0	0	513	470	
11	0	0	0	0	514	449	
12	0	0	0	0	517	472	
13	0	0	0	0	518	537	
14	0	0	0	0	511	563	
15	0	0	0	0	507	550	
0	0	0	0	0	504	503	
1	0	0	0	0	500	479	
2	0	0	0	0	513	519	
3	0	0	0	0	519	510	
4	0	0	0	0	512	495	
5	0	0	0	0	508	481	
6	0	0	0	0	502	523	
7	0	0	0	0	502	487	
8	0	0	0	0	509	443	
9	0	0	0	0	512	467	
10	0	0	0	0	516	521	
11	0	0	0	0	521	503	
12	0	0	0	0	523	529	
13	0	0	0	0	509	522	
14	0	0	0	0	503	502	
15	0	0	0	0	508	531	
0	0	0	0	0	518	540	
1	0	0	0	0	518	512	
2	0	0	0	0	510	492	
3	0	0	0	0	509	504	
4	0	0	0	0	513	559	
5	0	0	0	0	510	559	
6	0	0	0	0	505	516	
7	0	0	0	0	499	477	
8	0	0	0	0	506	409	
9	0	0	0	0	520	454	
10	0	0	0	0	520	513	
11	0	0	0	0	513	501	
12	0	0	0	0	515	539	
13	0	0	0	0	515	521	
14	0	0	0	0	510	506	
15	0	0	0	0	513	533	
0	0	0	0	0	514	547	
1	0	0	0	0	499	515	
2	0	0	0	0	502	523	
3	0	0	0	0	512	527	
4	0	0	0	0	523	481	
5	0	0	0	0	531	491	
6	0	0	0	0	514	485	
7	0	0	0	0	512	500	
8	0	0	0	0	516	541	
9	0	0	0	0	507	470	
10	0	0	0	0	502	460	
11	0	0	0	0	511	522	
12	0	0	0	0	513	565	
13	0	0	0	0	511	522	
14	0	0	0	0	505	479	
15	0	0	0	0	509	483	
0	0	0	0	0	510	482	
1	0	0	0	0	511	518	
2	0	0	0	0	514	512	
3	0	0	0	0	514	483	
4	0	0	0	0	523	526	
5	0	0	0	0	515	531	
6	0	0	0	0	508	510	
7	0	0	0	0	505	476	
8	0	0	0	0	509	492	
9	0	0	0	0	511	527	
10	0	0	0	0	511	536	
11	0	0	0	0	512	528	
12	0	0	0	0	508	508	
13	0	0	0	0	510	507	
14	0	0	0	0	503	513	
15	0	0	0	0	510	554	
0	0	0	0	0	505	513	
1	0	0	0	0	510	483	
2	0	0	0	0	525	457	
3	0	0	0	0	527	472	
4	0	0	0	0	521	532	
5	0	0	0	0	515	524	
6	0	0	0	0	507	497	
7	0	0	0	0	512	518	
8	0	0	0	0	509	523	
9	0	0	0	0	509	504	
10	0	0	0	0	510	553	
11	0	0	0	0	505	506	
12	0	0	0	0	500	408	
13	0	0	0	0	523	478	
14	0	0	0	0	520	523	
15	0	0	0	0	510	484	
0	0	0	0	0	513	487	
1	0	0	0	0	518	522	
2	0	0	0	0	513	525	
3	0	0	0	0	510	524	
4	0	0	0	0	510	505	
5	0	0	0	0	513	521	
6	0	0	0	0	510	511	
7	0	0	0	0	509	508	
8	0	0	0	0	512	521	
9	0	0	0	0	510	523	
10	0	0	0	0	511	516	
11	0	0	0	0	508	502	
12	0	0	0	0	508	516	
13	0	0	0	0	509	518	
14	0	0	0	0	512	522	
15	0	0	0	0	519	531	
0	0	0	0	0	517	536	
1	0	0	0	0	513	558	
2	0	0	0	0	511	526	
3	0	0	0	0	511	493	
4	0	0	0	0	512	528	
5	0	0	0	0	504	527	
6	0	0	0	0	493	358	
7	0	0	0	0	498	358	
8	0	0	0	0	512	445	
9	0	0	0	0	527	477	
10	0	0	0	0	524	515	
11	0	0	0	0	519	540	
12	0	0	0	0	515	534	
13	0	0	0	0	509	531	
14	0	0	0	0	510	536	
15	0	0	0	0	510	530	
0	0	0	0	0	511	526	
1	0	0	0	0	513	511	
2	0	0	0	0	516	517	
3	0	0	0	0	510	525	
4	0	0	0	0	510	515	
5	0	0	0	0	511	524	
6	0	0	0	0	516	567	
7	0	0	0	0	520	592	
8	0	0	0	0	514	601	
9	0	0	0	0	492	469	
10	0	0	0	0	487	322	
11	0	0	0	0	517	424	
12	0	0	0	0	520	514	
13	0	0	0	0	513	547	
14	0	0	0	0	503	502	
15	0	0	0	0	503	479	
0	0	0	0	0	515	475	
1	0	0	0	0	518	542	
2	0	0	0	0	511	558	
3	0	0	0	0	516	531	
4	0	0	0	0	522	483	
5	0	0	0	0	519	476	
6	0	0	0	0	520	536	
7	0	0	0	0	519	526	
8	0	0	0	0	510	451	
9	0	0	0	0	502	435	
10	0	0	0	0	514	510	
11	0	0	0	0	511	532	
12	0	0	0	0	506	528	
13	0	0	0	0	508	527	
14	0	0	0	0	511	535	
15	0	0	0	0	513	537	
0	0	0	0	0	513	521	
1	0	0	0	0	508	491	
2	0	0	0	0	507	503	
3	0	0	0	0	510	502	
4	0	0	0	0	512	513	
5	0	0	0	0	508	508	
6	0	0	0	0	509	502	
7	0	0	0	0	510	486	
8	0	0	0	0	516	523	
9	0	0	0	0	515	531	
10	0	0	0	0	511	510	
11	0	0	0	0	512	485	
12	0	0	0	0	519	535	
13	0	0	0	0	515	521	
14	0	0	0	0	507	487	
15	0	0	0	0	505	468	
0	0	0	0	0	507	476	
1	0	0	0	0	506	507	
2	0	0	0	0	512	555	
3	0	0	0	0	509	551	
4	0	0	0	0	511	483	
5	0	0	0	0	518	496	
6	0	0	0	0	512	479	
7	0	0	0	0	512	477	
8	0	0	0	0	515	489	
9	0	0	0	0	516	516	
10	0	0	0	0	515	537	
11	0	0	0	0	511	520	
12	0	0	0	0	509	520	
13	0	0	0	0	517	507	
14	0	0	0	0	515	488	
15	0	0	0	0	512	509	
0	0	0	0	0	517	555	
1	0	0	0	0	516	545	
2	0	0	0	0	512	508	
3	0	0	0	0	500	471	
4	0	0	0	0	506	510	
5	0	0	0	0	500	523	
6	0	0	0	0	503	538	
7	0	0	0	0	497	465	
8	0	0	0	0	517	405	
9	0	0	0	0	532	462	
10	0	0	0	0	525	524	
11	0	0	0	0	507	530	
12	0	0	0	0	517	513	
13	0	0	0	0	514	479	
14	0	0	0	0	512	484	
15	0	0	0	0	515	530	
0	0	0	0	0	508	539	
1	0	0	0	0	507	513	
2	0	0	0	0	509	498	
3	0	0	0	0	510	503	
4	0	0	0	0	514	518	
5	0	0	0	0	514	524	
6	0	0	0	0	514	525	
7	0	0	0	0	515	524	
8	0	0	0	0	513	521	
9	0	0	0	0	512	518	
10	0	0	0	0	511	512	
11	0	0	0	0	511	513	
12	0	0	0	0	509	515	
13	0	0	0	0	505	499	
14	0	0	0	0	503	494	
15	0	0	0	0	507	510	
0	0	0	0	0	512	531	
1	0	0	0	0	508	538	
2	0	0	0	0	504	520	
3	0	0	0	0	511	441	
4	0	0	0	0	505	457	
5	0	0	0	0	515	490	
6	0	0	0	0	518	499	
7	0	0	0	0	512	495	
8	0	0	0	0	515	541	
9	0	0	0	0	516	535	
10	0	0	0	0	510	467	
11	0	0	0	0	514	491	
12	0	0	0	0	521	524	
13	0	0	0	0	519	524	
14	0	0	0	0	515	523	
15	0	0	0	0	515	513	
0	0	0	0	0	513	507	
1	0	0	0	0	515	513	
2	0	0	0	0	513	510	
3	0	0	0	0	509	494	
4	0	0	0	0	511	509	
5	0	0	0	0	511	518	
6	0	0	0	0	514	515	
7	0	0	0	0	516	515	
8	0	0	0	0	516	518	
9	0	0	0	0	518	529	
10	0	0	0	0	509	531	
11	0	0	0	0	502	499	
12	0	0	0	0	497	487	
13	0	0	0	0	508	479	
14	0	0	0	0	508	487	
15	0	0	0	0	506	506	
0	0	0	0	0	499	504	
1	0	0	0	0	507	504	
2	0	0	0	0	515	510	
3	0	0	0	0	511	551	
4	0	0	0	0	506	518	
5	0	0	0	0	505	480	
6	0	0	0	0	507	439	
7	0	0	0	0	521	478	
8	0	0	0	0	522	518	
9	0	0	0	0	516	493	
10	0	0	0	0	519	512	
11	0	0	0	0	526	534	
12	0	0	0	0	519	497	
13	0	0	0	0	511	494	
14	0	0	0	0	504	519	
15	0	0	0	0	511	536	
0	0	0	0	0	512	511	
1	0	0	0	0	512	527	
2	0	0	0	0	507	520	
3	0	0	0	0	504	511	
4	0	0	0	0	502	507	
5	0	0	0	0	498	488	
6	0	0	0	0	499	507	
7	0	0	0	0	505	523	
8	0	0	0	0	512	527	
9	0	0	0	0	508	513	
10	0	0	0	0	507	493	
11	0	0	0	0	505	501	
12	0	0	0	0	509	516	
13	0	0	0	0	516	519	
14	0	0	0	0	513	492	
15	0	0	0	0	517	492	
0	0	0	0	0	518	501	
1	0	0	0	0	524	521	
2	0	0	0	0	521	518	
3	0	0	0	0	517	502	
4	0	0	0	0	514	526	
5	0	0	0	0	509	487	
6	0	0	0	0	511	490	
7	0	0	0	0	517	519	
8	0	0	0	0	518	527	
9	0	0	0	0	517	544	
10	0	0	0	0	516	535	
11	0	0	0	0	509	489	
12	0	0	0	0	511	501	
13	0	0	0	0	502	480	
14	0	0	0	0	497	435	
15	0	0	0	0	511	504	
0	0	0	0	0	523	518	
1	0	0	0	0	517	493	
2	0	0	0	0	510	475	
3	0	0	0	0	521	541	
4	0	0	0	0	515	537	
5	0	0	0	0	512	525	
6	0	0	0	0	508	515	
7	0	0	0	0	514	523	
8	0	0	0	0	518	533	
9	0	0	0	0	513	476	
10	0	0	0	0	519	475	
11	0	0	0	0	524	519	
12	0	0	0	0	515	509	
13	0	0	0	0	513	476	
14	0	0	0	0	521	496	
15	0	0	0	0	520	520	
0	0	0	0	0	515	532	
1	0	0	0	0	513	532	
2	0	0	0	0	514	523	
3	0	0	0	0	508	537	
4	0	0	0	0	507	533	
5	0	0	0	0	519	496	
6	0	0	0	0	517	448	
7	0	0	0	0	504	476	
8	0	0	0	0	494	497	
9	0	0	0	0	487	536	
10	0	0	0	0	463	519	
11	0	0	0	0	475	445	
12	0	0	0	0	504	452	
13	0	0	0	0	515	544	
14	0	0	0	0	515	562	
15	0	0	0	0	511	529	
0	0	0	0	0	504	466	
1	0	0	0	0	503	433	
2	0	0	0	0	530	511	
3	0	0	0	0	547	527	
4	0	0	0	0	542	518	
5	0	0	0	0	528	506	
6	0	0	0	0	521	522	
7	0	0	0	0	516	537	
8	0	0	0	0	512	519	
9	0	0	0	0	509	508	
10	0	0	0	0	511	494	
11	0	0	0	0	511	494	
12	0	0	0	0	512	518	
13	0	0	0	0	509	530	
14	0	0	0	0	507	526	
15	0	0	0	0	503	515	
0	0	0	0	0	502	504	
1	0	0	0	0	503	498	
2	0	0	0	0	496	492	
3	0	0	0	0	499	504	
4	0	0	0	0	504	514	
5	0	0	0	0	514	517	
6	0	0	0	0	525	512	
7	0	0	0	0	533	513	
8	0	0	0	0	529	509	
9	0	0	0	0	526	508	
10	0	0	0	0	518	503	
11	0	0	0	0	519	511	
12	0	0	0	0	517	519	
13	0	0	0	0	515	516	
14	0	0	0	0	504	491	
15	0	0	0	0	506	496	
0	0	0	0	0	510	510	
1	0	0	0	0	513	511	
2	0	0	0	0	505	504	
3	0	0	0	0	492	498	
4	0	0	0	0	487	497	
5	0	0	0	0	489	498	
6	0	0	0	0	488	498	
7	0	0	0	0	495	498	
8	0	0	0	0	498	499	
9	0	0	0	0	505	512	
10	0	0	0	0	513	516	
11	0	0	0	0	519	498	
12	0	0	0	0	523	510	
13	0	0	0	0	524	521	
14	0	0	0	0	524	523	
15	0	0	0	0	519	518	
0	0	0	0	0	512	512	
1	0	0	0	0	516	503	
2	0	0	0	0	519	501	
3	0	0	0	0	517	503	
4	0	0	0	0	516	508	
5	0	0	0	0	520	529	
6	0	0	0	0	519	538	
7	0	0	0	0	518	521	
8	0	0	0	0	500	457	
9	0	0	0	0	505	460	
10	0	0	0	0	512	510	
11	0	0	0	0	512	509	
12	0	0	0	0	515	527	
13	0	0	0	0	520	537	
14	0	0	0	0	521	527	
15	0	0	0	0	508	484	
0	0	0	0	0	514	495	
1	0	0	0	0	518	493	
2	0	0	0	0	515	502	
3	0	0	0	0	531	507	
4	0	0	0	0	534	470	
5	0	0	0	0	536	511	
6	0	0	0	0	532	532	
7	0	0	0	0	524	532	
8	0	0	0	0	519	492	
9	0	0	0	0	512	493	
10	0	0	0	0	509	502	
11	0	0	0	0	505	499	
12	0	0	0	0	498	516	
13	0	0	0	0	497	538	
14	0	0	0	0	487	509	
15	0	0	0	0	478	477	
0	0	0	0	0	482	524	
1	0	0	0	0	497	551	
2	0	0	0	0	494	531	
3	0	0	0	0	493	517	
4	0	0	0	0	503	521	
5	0	0	0	0	510	491	
6	0	0	0	0	510	482	
7	0	0	0	0	501	460	
8	0	0	0	0	492	446	
9	0	0	0	0	502	481	
10	0	0	0	0	510	515	
11	0	0	0	0	519	517	
12	0	0	0	0	527	529	
13	0	0	0	0	530	524	
14	0	0	0	0	525	503	
15	0	0	0	0	527	510	
0	0	0	0	0	524	521	
1	0	0	0	0	517	520	
2	0	0	0	0	508	525	
3	0	0	0	0	501	528	
4	0	0	0	0	498	517	
5	0	0	0	0	496	505	
6	0	0	0	0	502	507	
7	0	0	0	0	505	492	
8	0	0	0	0	507	512	
9	0	0	0	0	518	539	
10	0	0	0	0	521	544	
11	0	0	0	0	521	522	
12	0	0	0	0	519	505	
13	0	0	0	0	510	499	
14	0	0	0	0	510	444	
15	0	0	0	0	505	412	
0	0	0	0	0	525	456	
1	0	0	0	0	530	516	
2	0	0	0	0	522	550	
3	0	0	0	0	519	532	
4	0	0	0	0	510	522	
5	0	0	0	0	518	536	
6	0	0	0	0	519	510	
7	0	0	0	0	515	454	
8	0	0	0	0	513	498	
9	0	0	0	0	516	576	
10	0	0	0	0	513	571	
11	0	0	0	0	501	515	
12	0	0	0	0	492	406	
13	0	0	0	0	519	479	
14	0	0	0	0	524	500	
15	0	0	0	0	512	498	
0	0	0	0	0	514	513	
1	0	0	0	0	519	511	
2	0	0	0	0	517	510	
3	0	0	0	0	513	518	
4	0	0	0	0	507	525	
5	0	0	0	0	504	523	
6	0	0	0	0	508	512	
7	0	0	0	0	511	507	
8	0	0	0	0	516	521	
9	0	0	0	0	513	516	
10	0	0	0	0	512	519	
11	0	0	0	0	514	536	
12	0	0	0	0	514	514	
13	0	0	0	0	518	505	
14	0	0	0	0	513	478	
15	0	0	0	0	508	495	
0	0	0	0	0	524	533	
1	0	0	0	0	518	513	
2	0	0	0	0	508	482	
3	0	0	0	0	499	511	
4	0	0	0	0	495	482	
5	0	0	0	0	504	482	
6	0	0	0	0	519	510	
7	0	0	0	0	511	487	
8	0	0	0	0	504	496	
9	0	0	0	0	504	510	
10	0	0	0	0	498	489	
11	0	0	0	0	506	510	
12	0	0	0	0	509	532	
13	0	0	0	0	511	525	
14	0	0	0	0	513	508	
15	0	0	0	0	512	497	
0	0	0	0	0	521	515	
1	0	0	0	0	517	527	
2	0	0	0	0	514	527	
3	0	0	0	0	514	509	
4	0	0	0	0	514	505	
5	0	0	0	0	516	526	
6	0	0	0	0	511	521	
7	0	0	0	0	513	502	
8	0	0	0	0	521	481	
9	0	0	0	0	540	494	
10	0	0	0	0	541	494	
11	0	0	0	0	529	508	
12	0	0	0	0	515	514	
13	0	0	0	0	505	479	
14	0	0	0	0	510	506	
15	0	0	0	0	506	523	
0	0	0	0	0	499	517	
1	0	0	0	0	490	498	
2	0	0	0	0	493	506	
3	0	0	0	0	503	524	
4	0	0	0	0	514	503	
5	0	0	0	0	517	488	
6	0	0	0	0	504	501	
7	0	0	0	0	503	508	
8	0	0	0	0	499	509	
9	0	0	0	0	498	512	
10	0	0	0	0	503	510	
11	0	0	0	0	511	508	
12	0	0	0	0	514	517	
13	0	0	0	0	519	521	
14	0	0	0	0	520	528	
15	0	0	0	0	521	520	
0	0	0	0	0	513	489	
1	0	0	0	0	509	494	
2	0	0	0	0	512	508	
3	0	0	0	0	502	503	
4	0	0	0	0	488	510	
5	0	0	0	0	485	515	
6	0	0	0	0	492	507	
7	0	0	0	0	499	502	
8	0	0	0	0	503	507	
9	0	0	0	0	513	499	
10	0	0	0	0	521	507	
11	0	0	0	0	524	514	
12	0	0	0	0	516	504	
13	0	0	0	0	516	492	
14	0	0	0	0	520	495	
15	0	0	0	0	524	500	
0	0	0	0	0	521	510	
1	0	0	0	0	517	540	
2	0	0	0	0	511	532	
3	0	0	0	0	519	535	
4	0	0	0	0	522	522	
5	0	0	0	0	517	475	
6	0	0	0	0	510	437	
7	0	0	0	0	521	478	
8	0	0	0	0	521	510	
9	0	0	0	0	526	537	
10	0	0	0	0	520	575	
11	0	0	0	0	518	611	
12	0	0	0	0	507	577	
13	0	0	0	0	483	412	
14	0	0	0	0	489	322	
15	0	0	0	0	516	445	
0	0	0	0	0	520	502	
1	0	0	0	0	514	474	
2	0	0	0	0	513	507	
3	0	0	0	0	517	545	
4	0	0	0	0	519	544	
5	0	0	0	0	515	523	
6	0	0	0	0	515	535	
7	0	0	0	0	514	542	
8	0	0	0	0	511	540	
9	0	0	0	0	509	524	
10	0	0	0	0	510	517	
11	0	0	0	0	514	538	
12	0	0	0	0	504	532	
13	0	0	0	0	502	459	
14	0	0	0	0	517	427	
15	0	0	0	0	523	492	
0	0	0	0	0	511	505	
1	0	0	0	0	501	503	
2	0	0	0	0	502	483	
3	0	0	0	0	511	511	
4	0	0	0	0	512	521	
5	0	0	0	0	513	513	
6	0	0	0	0	511	515	
7	0	0	0	0	509	528	
8	0	0	0	0	508	516	
9	0	0	0	0	508	510	
10	0	0	0	0	512	521	
11	0	0	0	0	508	505	
12	0	0	0	0	509	498	
13	0	0	0	0	512	503	
14	0	0	0	0	512	507	
15	0	0	0	0	515	510	
0	0	0	0	0	514	513	
1	0	0	0	0	512	514	
2	0	0	0	0	516	510	
3	0	0	0	0	516	508	
4	0	0	0	0	511	511	
5	0	0	0	0	512	512	
6	0	0	0	0	513	509	
7	0	0	0	0	510	506	
8	0	0	0	0	506	515	
9	0	0	0	0	511	506	
10	0	0	0	0	512	491	
11	0	0	0	0	511	488	
12	0	0	0	0	514	501	
13	0	0	0	0	512	507	
14	0	0	0	0	509	502	
15	0	0	0	0	511	509	
0	0	0	0	0	517	514	
1	0	0	0	0	517	494	
2	0	0	0	0	521	502	
3	0	0	0	0	522	512	
4	0	0	0	0	518	520	
5	0	0	0	0	513	521	
6	0	0	0	0	514	514	
7	0	0	0	0	516	509	
8	0	0	0	0	515	513	
9	0	0	0	0	511	515	
10	0	0	0	0	508	499	
11	0	0	0	0	500	512	
12	0	0	0	0	498	496	
13	0	0	0	0	503	489	
14	0	0	0	0	506	492	
15	0	0	0	0	505	512	
0	0	0	0	0	496	545	
1	0	0	0	0	490	533	
2	0	0	0	0	501	518	
3	0	0	0	0	513	515	
4	0	0	0	0	509	475	
5	0	0	0	0	512	471	
6	0	0	0	0	526	461	
7	0	0	0	0	520	465	
8	0	0	0	0	518	512	
9	0	0	0	0	516	535	
10	0	0	0	0	513	523	
11	0	0	0	0	502	516	
12	0	0	0	0	515	550	
13	0	0	0	0	508	515	
14	0	0	0	0	514	522	
15	0	0	0	0	516	510	
0	0	0	0	0	515	473	
1	0	0	0	0	515	482	
2	0	0	0	0	506	484	
3	0	0	0	0	507	479	
4	0	0	0	0	524	524	
5	0	0	0	0	524	552	
6	0	0	0	0	517	502	
7	0	0	0	0	524	529	
8	0	0	0	0	533	563	
9	0	0	0	0	514	505	
10	0	0	0	0	503	494	
11	0	0	0	0	500	518	
12	0	0	0	0	495	444	
13	0	0	0	0	503	472	
14	0	0	0	0	517	453	
15	0	0	0	0	518	461	
0	0	0	0	0	519	505	
1	0	0	0	0	509	547	
2	0	0	0	0	508	569	
3	0	0	0	0	504	554	
4	0	0	0	0	508	526	
5	0	0	0	0	514	495	
6	0	0	0	0	523	461	
7	0	0	0	0	521	501	
8	0	0	0	0	515	524	
9	0	0	0	0	511	515	
10	0	0	0	0	509	555	
11	0	0	0	0	501	580	
12	0	0	0	0	498	562	
13	0	0	0	0	485	459	
14	0	0	0	0	506	415	
15	0	0	0	0	532	445	
0	0	0	0	0	537	521	
1	0	0	0	0	525	606	
2	0	0	0	0	502	559	
3	0	0	0	0	501	502	
4	0	0	0	0	515	436	
5	0	0	0	0	510	376	
6	0	0	0	0	517	465	
7	0	0	0	0	512	490	
8	0	0	0	0	509	544	
9	0	0	0	0	509	557	
10	0	0	0	0	498	532	
11	0	0	0	0	507	489	
12	0	0	0	0	506	448	
13	0	0	0	0	516	528	
14	0	0	0	0	520	577	
15	0	0	0	0	521	509	
0	0	0	0	0	519	471	
1	0	0	0	0	516	471	
2	0	0	0	0	511	496	
3	0	0	0	0	510	524	
4	0	0	0	0	512	542	
5	0	0	0	0	515	556	
6	0	0	0	0	505	566	
7	0	0	0	0	498	483	
8	0	0	0	0	507	490	
9	0	0	0	0	511	514	
10	0	0	0	0	509	528	
11	0	0	0	0	511	483	
12	0	0	0	0	507	451	
13	0	0	0	0	511	463	
14	0	0	0	0	516	507	
15	0	0	0	0	524	518	
0	0	0	0	0	519	515	
1	0	0	0	0	511	513	
2	0	0	0	0	506	506	
3	0	0	0	0	512	525	
4	0	0	0	0	518	525	
5	0	0	0	0	514	527	
6	0	0	0	0	512	530	
7	0	0	0	0	514	533	
8	0	0	0	0	507	545	
9	0	0	0	0	502	493	
10	0	0	0	0	512	474	
11	0	0	0	0	527	497	
12	0	0	0	0	527	492	
13	0	0	0	0	507	468	
14	0	0	0	0	495	475	
15	0	0	0	0	508	507	
0	0	0	0	0	507	505	
1	0	0	0	0	514	521	
2	0	0	0	0	516	520	
3	0	0	0	0	514	534	
4	0	0	0	0	508	513	
5	0	0	0	0	514	547	
6	0	0	0	0	531	595	
7	0	0	0	0	521	595	
8	0	0	0	0	497	461	
9	0	0	0	0	483	368	
10	0	0	0	0	493	407	
11	0	0	0	0	499	496	
12	0	0	0	0	512	507	
13	0	0	0	0	512	485	
14	0	0	0	0	519	504	
15	0	0	0	0	529	524	
0	0	0	0	0	523	524	
1	0	0	0	0	514	513	
2	0	0	0	0	500	457	
3	0	0	0	0	509	495	
4	0	0	0	0	518	537	
5	0	0	0	0	522	573	
6	0	0	0	0	517	543	
7	0	0	0	0	515	492	
8	0	0	0	0	508	480	
9	0	0	0	0	506	497	
10	0	0	0	0	509	519	
11	0	0	0	0	511	538	
12	0	0	0	0	507	517	
13	0	0	0	0	509	479	
14	0	0	0	0	518	460	
15	0	0	0	0	522	536	
0	0	0	0	0	512	560	
1	0	0	0	0	508	543	
2	0	0	0	0	514	492	
3	0	0	0	0	504	489	
4	0	0	0	0	499	473	
5	0	0	0	0	506	516	
6	0	0	0	0	510	535	
7	0	0	0	0	512	579	
8	0	0	0	0	513	528	
9	0	0	0	0	512	517	
10	0	0	0	0	520	452	
11	0	0	0	0	521	433	
12	0	0	0	0	531	501	
13	0	0	0	0	524	594	
14	0	0	0	0	507	591	
15	0	0	0	0	509	513	
0	0	0	0	0	512	413	
1	0	0	0	0	496	387	
2	0	0	0	0	492	403	
3	0	0	0	0	504	414	
4	0	0	0	0	515	511	
5	0	0	0	0	522	590	
6	0	0	0	0	516	626	
7	0	0	0	0	505	606	
8	0	0	0	0	501	471	
9	0	0	0	0	507	374	
10	0	0	0	0	527	483	
11	0	0	0	0	523	532	
12	0	0	0	0	501	549	
13	0	0	0	0	503	534	
14	0	0	0	0	522	559	
15	0	0	0	0	522	500	
0	0	0	0	0	530	455	
1	0	0	0	0	529	480	
2	0	0	0	0	517	521	
3	0	0	0	0	510	519	
4	0	0	0	0	513	567	
5	0	0	0	0	504	520	
6	0	0	0	0	508	486	
7	0	0	0	0	508	481	
8	0	0	0	0	503	480	
9	0	0	0	0	509	524	
10	0	0	0	0	508	527	
11	0	0	0	0	505	541	
12	0	0	0	0	505	544	
13	0	0	0	0	497	465	
14	0	0	0	0	508	441	
15	0	0	0	0	523	504	
0	0	0	0	0	514	511	
1	0	0	0	0	516	518	
2	0	0	0	0	507	504	
3	0	0	0	0	505	515	
4	0	0	0	0	511	514	
5	0	0	0	0	512	505	
6	0	0	0	0	516	510	
7	0	0	0	0	518	513	
8	0	0	0	0	518	527	
9	0	0	0	0	520	533	
10	0	0	0	0	514	526	
11	0	0	0	0	510	542	
12	0	0	0	0	515	593	
13	0	0	0	0	500	551	
14	0	0	0	0	495	480	
15	0	0	0	0	509	363	
0	0	0	0	0	523	403	
1	0	0	0	0	521	481	
2	0	0	0	0	509	514	
3	0	0	0	0	511	520	
4	0	0	0	0	509	516	
5	0	0	0	0	508	446	
6	0	0	0	0	501	493	
7	0	0	0	0	507	526	
8	0	0	0	0	516	516	
9	0	0	0	0	519	524	
10	0	0	0	0	515	538	
11	0	0	0	0	512	524	
12	0	0	0	0	510	487	
13	0	0	0	0	515	522	
14	0	0	0	0	520	547	
15	0	0	0	0	513	528	
0	0	0	0	0	507	493	
1	0	0	0	0	509	500	
2	0	0	0	0	512	514	
3	0	0	0	0	511	513	
4	0	0	0	0	509	513	
5	0	0	0	0	510	516	
6	0	0	0	0	510	515	
7	0	0	0	0	515	517	
8	0	0	0	0	517	519	
9	0	0	0	0	516	519	
10	0	0	0	0	513	497	
11	0	0	0	0	511	476	
12	0	0	0	0	521	508	
13	0	0	0	0	518	507	
14	0	0	0	0	516	484	
15	0	0	0	0	517	520	
0	0	0	0	0	512	504	
1	0	0	0	0	520	512	
2	0	0	0	0	511	497	
3	0	0	0	0	500	483	
4	0	0	0	0	504	480	
5	0	0	0	0	511	518	
6	0	0	0	0	512	563	
7	0	0	0	0	508	603	
8	0	0	0	0	496	552	
9	0	0	0	0	500	477	
10	0	0	0	0	502	398	
11	0	0	0	0	508	494	
12	0	0	0	0	492	459	
13	0	0	0	0	491	434	
14	0	0	0	0	526	543	
15	0	0	0	0	524	596	
0	0	0	0	0	502	543	
1	0	0	0	0	492	516	
2	0	0	0	0	514	416	
3	0	0	0	0	553	487	
4	0	0	0	0	563	604	
5	0	0	0	0	535	573	
6	0	0	0	0	501	420	
7	0	0	0	0	496	403	
8	0	0	0	0	502	460	
9	0	0	0	0	501	475	
10	0	0	0	0	511	497	
11	0	0	0	0	513	520	
12	0	0	0	0	514	537	
13	0	0	0	0	515	543	
14	0	0	0	0	511	537	
15	0	0	0	0	508	526	
0	0	0	0	0	506	523	
1	0	0	0	0	506	525	
2	0	0	0	0	507	526	
3	0	0	0	0	515	496	
4	0	0	0	0	515	490	
5	0	0	0	0	511	518	
6	0	0	0	0	512	553	
7	0	0	0	0	514	575	
8	0	0	0	0	511	580	
9	0	0	0	0	509	541	
10	0	0	0	0	492	390	
11	0	0	0	0	510	434	
12	0	0	0	0	527	497	
13	0	0	0	0	516	503	
14	0	0	0	0	512	569	
15	0	0	0	0	508	558	
0	0	0	0	0	512	555	
1	0	0	0	0	513	497	
2	0	0	0	0	513	429	
3	0	0	0	0	517	386	
4	0	0	0	0	513	418	
5	0	0	0	0	512	453	
6	0	0	0	0	522	519	
7	0	0	0	0	515	546	
8	0	0	0	0	502	523	
9	0	0	0	0	515	537	
10	0	0	0	0	517	556	
11	0	0	0	0	514	537	
12	0	0	0	0	509	512	
13	0	0	0	0	508	498	
14	0	0	0	0	500	489	
15	0	0	0	0	510	510	
0	0	0	0	0	514	508	
1	0	0	0	0	511	514	
2	0	0	0	0	510	523	
3	0	0	0	0	512	528	
4	0	0	0	0	513	531	
5	0	0	0	0	515	528	
6	0	0	0	0	523	539	
7	0	0	0	0	507	500	
8	0	0	0	0	495	447	
9	0	0	0	0	503	484	
10	0	0	0	0	507	481	
11	0	0	0	0	516	518	
12	0	0	0	0	517	540	
13	0	0	0	0	516	561	
14	0	0	0	0	519	535	
15	0	0	0	0	511	502	
0	0	0	0	0	508	496	
1	0	0	0	0	506	467	
2	0	0	0	0	504	433	
3	0	0	0	0	513	467	
4	0	0	0	0	517	504	
5	0	0	0	0	521	521	
6	0	0	0	0	514	527	
7	0	0	0	0	507	496	
8	0	0	0	0	505	509	
9	0	0	0	0	509	520	
10	0	0	0	0	510	517	
11	0	0	0	0	510	512	
12	0	0	0	0	514	517	
13	0	0	0	0	516	525	
14	0	0	0	0	524	517	
15	0	0	0	0	529	519	
0	0	0	0	0	517	508	
1	0	0	0	0	519	496	
2	0	0	0	0	521	515	
3	0	0	0	0	521	517	
4	0	0	0	0	515	526	
5	0	0	0	0	513	531	
6	0	0	0	0	504	503	
7	0	0	0	0	489	423	
8	0	0	0	0	493	476	
9	0	0	0	0	504	509	
10	0	0	0	0	507	521	
11	0	0	0	0	507	545	
12	0	0	0	0	513	561	
13	0	0	0	0	512	535	
14	0	0	0	0	487	405	
15	0	0	0	0	498	472	
0	0	0	0	0	509	531	
1	0	0	0	0	512	508	
2	0	0	0	0	511	495	
3	0	0	0	0	511	511	
4	0	0	0	0	519	529	
5	0	0	0	0	523	535	
6	0	0	0	0	526	540	
7	0	0	0	0	523	540	
8	0	0	0	0	515	502	
9	0	0	0	0	518	482	
10	0	0	0	0	516	489	
11	0	0	0	0	509	509	
12	0	0	0	0	504	522	
13	0	0	0	0	500	525	
14	0	0	0	0	502	481	
15	0	0	0	0	503	486	
0	0	0	0	0	507	485	
1	0	0	0	0	505	415	
2	0	0	0	0	518	482	
3	0	0	0	0	520	539	
4	0	0	0	0	511	523	
5	0	0	0	0	507	516	
6	0	0	0	0	504	514	
7	0	0	0	0	514	530	
8	0	0	0	0	520	536	
9	0	0	0	0	521	539	
10	0	0	0	0	529	538	
11	0	0	0	0	526	542	
12	0	0	0	0	514	489	
13	0	0	0	0	502	467	
14	0	0	0	0	499	491	
15	0	0	0	0	501	458	
0	0	0	0	0	516	478	
1	0	0	0	0	517	479	
2	0	0	0	0	511	524	
3	0	0	0	0	506	573	
4	0	0	0	0	500	571	
5	0	0	0	0	503	527	
6	0	0	0	0	521	507	
7	0	0	0	0	527	491	
8	0	0	0	0	517	497	
9	0	0	0	0	505	480	
10	0	0	0	0	502	502	
11	0	0	0	0	511	474	
12	0	0	0	0	511	475	
13	0	0	0	0	528	491	
14	0	0	0	0	526	505	
15	0	0	0	0	515	520	
0	0	0	0	0	514	541	
1	0	0	0	0	512	515	
2	0	0	0	0	509	509	
3	0	0	0	0	518	537	
4	0	0	0	0	515	531	
5	0	0	0	0	509	532	
6	0	0	0	0	503	499	
7	0	0	0	0	510	520	
8	0	0	0	0	513	539	
9	0	0	0	0	516	492	
10	0	0	0	0	518	537	
11	0	0	0	0	512	554	
12	0	0	0	0	492	504	
13	0	0	0	0	499	391	
14	0	0	0	0	512	400	
15	0	0	0	0	516	492	
0	0	0	0	0	510	491	
1	0	0	0	0	504	494	
2	0	0	0	0	505	493	
3	0	0	0	0	515	524	
4	0	0	0	0	516	539	
5	0	0	0	0	512	519	
6	0	0	0	0	514	515	
7	0	0	0	0	514	531	
8	0	0	0	0	514	543	
9	0	0	0	0	513	526	
10	0	0	0	0	516	519	
11	0	0	0	0	509	481	
12	0	0	0	0	504	475	
13	0	0	0	0	509	508	
14	0	0	0	0	512	519	
15	0	0	0	0	515	542	
0	0	0	0	0	515	546	
1	0	0	0	0	506	533	
2	0	0	0	0	498	473	
3	0	0	0	0	507	461	
4	0	0	0	0	523	497	
5	0	0	0	0	531	543	
6	0	0	0	0	530	543	
7	0	0	0	0	522	522	
8	0	0	0	0	518	515	
9	0	0	0	0	512	498	
10	0	0	0	0	508	526	
11	0	0	0	0	495	500	
12	0	0	0	0	499	488	
13	0	0	0	0	496	476	
14	0	0	0	0	495	401	
15	0	0	0	0	503	457	
0	0	0	0	0	508	524	
1	0	0	0	0	509	527	
2	0	0	0	0	505	494	
3	0	0	0	0	509	516	
4	0	0	0	0	515	545	
5	0	0	0	0	519	531	
6	0	0	0	0	517	520	
7	0	0	0	0	521	511	
8	0	0	0	0	518	520	
9	0	0	0	0	522	541	
10	0	0	0	0	523	533	
11	0	0	0	0	515	485	
12	0	0	0	0	509	456	
13	0	0	0	0	506	480	
14	0	0	0	0	507	552	
15	0	0	0	0	510	575	
0	0	0	0	0	511	538	
1	0	0	0	0	510	486	
2	0	0	0	0	523	551	
3	0	0	0	0	522	552	
4	0	0	0	0	495	489	
5	0	0	0	0	478	403	
6	0	0	0	0	496	381	
7	0	0	0	0	526	455	
8	0	0	0	0	526	485	
9	0	0	0	0	524	524	
10	0	0	0	0	517	519	
11	0	0	0	0	515	512	
12	0	0	0	0	519	525	
13	0	0	0	0	521	545	
14	0	0	0	0	519	542	
15	0	0	0	0	512	505	
0	0	0	0	0	512	524	
1	0	0	0	0	514	526	
2	0	0	0	0	510	513	
3	0	0	0	0	511	493	
4	0	0	0	0	504	476	
5	0	0	0	0	509	510	
6	0	0	0	0	508	531	
7	0	0	0	0	511	547	
8	0	0	0	0	503	541	
9	0	0	0	0	503	521	
10	0	0	0	0	499	487	
11	0	0	0	0	509	506	
12	0	0	0	0	514	530	
13	0	0	0	0	521	519	
14	0	0	0	0	516	489	
15	0	0	0	0	515	489	
0	0	0	0	0	518	469	
1	0	0	0	0	509	464	
2	0	0	0	0	508	478	
3	0	0	0	0	507	463	
4	0	0	0	0	506	477	
5	0	0	0	0	510	505	
6	0	0	0	0	512	520	
7	0	0	0	0	513	530	
8	0	0	0	0	514	540	
9	0	0	0	0	517	546	
10	0	0	0	0	516	542	
11	0	0	0	0	514	534	
12	0	0	0	0	515	533	
13	0	0	0	0	506	507	
14	0	0	0	0	511	544	
15	0	0	0	0	513	567	
0	0	0	0	0	507	539	
1	0	0	0	0	504	562	
2	0	0	0	0	501	472	
3	0	0	0	0	497	391	
4	0	0	0	0	491	348	
5	0	0	0	0	502	383	
6	0	0	0	0	534	489	
7	0	0	0	0	545	580	
8	0	0	0	0	534	624	
9	0	0	0	0	510	617	
10	0	0	0	0	495	488	
11	0	0	0	0	512	383	
12	0	0	0	0	529	436	
13	0	0	0	0	532	518	
14	0	0	0	0	521	516	
15	0	0	0	0	514	508	
0	0	0	0	0	511	470	
1	0	0	0	0	515	484	
2	0	0	0	0	515	517	
3	0	0	0	0	510	531	
4	0	0	0	0	506	535	
5	0	0	0	0	503	532	
6	0	0	0	0	500	536	
7	0	0	0	0	501	531	
8	0	0	0	0	500	532	
9	0	0	0	0	500	530	
10	0	0	0	0	504	526	
11	0	0	0	0	505	524	
12	0	0	0	0	506	528	
13	0	0	0	0	504	560	
14	0	0	0	0	500	526	
15	0	0	0	0	504	483	
0	0	0	0	0	516	489	
1	0	0	0	0	531	551	
2	0	0	0	0	532	564	
3	0	0	0	0	508	419	
4	0	0	0	0	487	310	
5	0	0	0	0	511	434	
6	0	0	0	0	534	532	
7	0	0	0	0	534	528	
8	0	0	0	0	523	515	
9	0	0	0	0	510	494	
10	0	0	0	0	506	501	
11	0	0	0	0	506	494	
12	0	0	0	0	506	527	
13	0	0	0	0	507	531	
14	0	0	0	0	510	533	
15	0	0	0	0	511	511	
0	0	0	0	0	517	553	
1	0	0	0	0	531	636	
2	0	0	0	0	530	636	
3	0	0	0	0	520	664	
4	0	0	0	0	497	633	
5	0	0	0	0	476	464	
6	0	0	0	0	499	365	
7	0	0	0	0	514	400	
8	0	0	0	0	497	326	
9	0	0	0	0	492	328	
10	0	0	0	0	516	343	
11	0	0	0	0	546	419	
12	0	0	0	0	545	516	
13	0	0	0	0	531	583	
14	0	0	0	0	511	566	
15	0	0	0	0	495	519	
0	0	0	0	0	502	526	
1	0	0	0	0	509	580	
2	0	0	0	0	503	527	
3	0	0	0	0	508	494	
4	0	0	0	0	516	491	
5	0	0	0	0	522	530	
6	0	0	0	0	518	559	
7	0	0	0	0	513	561	
8	0	0	0	0	511	545	
9	0	0	0	0	505	479	
10	0	0	0	0	501	492	
11	0	0	0	0	510	540	
12	0	0	0	0	510	568	
13	0	0	0	0	500	529	
14	0	0	0	0	499	524	
15	0	0	0	0	518	522	
0	0	0	0	0	523	540	
1	0	0	0	0	498	473	
2	0	0	0	0	504	451	
3	0	0	0	0	524	492	
4	0	0	0	0	517	510	
5	0	0	0	0	515	477	
6	0	0	0	0	509	495	
7	0	0	0	0	497	475	
8	0	0	0	0	511	455	
9	0	0	0	0	526	442	
10	0	0	0	0	518	490	
11	0	0	0	0	520	528	
12	0	0	0	0	510	537	
13	0	0	0	0	510	510	
14	0	0	0	0	506	514	
15	0	0	0	0	509	529	
0	0	0	0	0	509	531	
1	0	0	0	0	513	531	
2	0	0	0	0	514	541	
3	0	0	0	0	523	595	
4	0	0	0	0	530	639	
5	0	0	0	0	525	604	
6	0	0	0	0	504	573	
7	0	0	0	0	484	542	
8	0	0	0	0	464	481	
9	0	0	0	0	451	349	
10	0	0	0	0	483	228	
11	0	0	0	0	538	320	
12	0	0	0	0	559	498	
13	0	0	0	0	560	579	
14	0	0	0	0	554	590	
15	0	0	0	0	517	550	
0	0	0	0	0	497	442	
1	0	0	0	0	510	375	
2	0	0	0	0	522	436	
3	0	0	0	0	530	516	
4	0	0	0	0	516	524	
5	0	0	0	0	506	537	
6	0	0	0	0	507	544	
7	0	0	0	0	507	548	
8	0	0	0	0	504	545	
9	0	0	0	0	502	543	
10	0	0	0	0	505	538	
11	0	0	0	0	503	532	
12	0	0	0	0	508	534	
13	0	0	0	0	510	554	
14	0	0	0	0	516	588	
15	0	0	0	0	522	636	
0	0	0	0	0	522	658	
1	0	0	0	0	502	591	
2	0	0	0	0	481	435	
3	0	0	0	0	472	237	
4	0	0	0	0	502	270	
5	0	0	0	0	533	423	
6	0	0	0	0	534	507	
7	0	0	0	0	521	518	
8	0	0	0	0	523	556	
9	0	0	0	0	521	578	
10	0	0	0	0	515	513	
11	0	0	0	0	508	475	
12	0	0	0	0	505	467	
13	0	0	0	0	504	500	
14	0	0	0	0	508	506	
15	0	0	0	0	510	507	
0	0	0	0	0	511	521	
1	0	0	0	0	514	534	
2	0	0	0	0	517	529	
3	0	0	0	0	518	524	
4	0	0	0	0	521	558	
5	0	0	0	0	526	606	
6	0	0	0	0	527	657	
7	0	0	0	0	512	670	
8	0	0	0	0	480	578	
9	0	0	0	0	481	580	
10	0	0	0	0	468	546	
11	0	0	0	0	480	416	
12	0	0	0	0	529	321	
13	0	0	0	0	522	91	
14	0	0	0	0	541	180	
15	0	0	0	0	560	410	
0	0	0	0	0	553	560	
1	0	0	0	0	528	592	
2	0	0	0	0	507	553	
3	0	0	0	0	510	557	
4	0	0	0	0	509	584	
5	0	0	0	0	501	557	
6	0	0	0	0	496	524	
7	0	0	0	0	504	514	
8	0	0	0	0	508	522	
9	0	0	0	0	507	534	
10	0	0	0	0	508	537	
11	0	0	0	0	511	528	
12	0	0	0	0	509	527	
13	0	0	0	0	510	551	
14	0	0	0	0	513	583	
15	0	0	0	0	510	560	
0	0	0	0	0	506	543	
1	0	0	0	0	497	531	
2	0	0	0	0	496	530	
3	0	0	0	0	504	534	
4	0	0	0	0	511	473	
5	0	0	0	0	513	431	
6	0	0	0	0	525	438	
7	0	0	0	0	527	428	
8	0	0	0	0	524	413	
9	0	0	0	0	510	426	
10	0	0	0	0	500	452	
11	0	0	0	0	506	473	
12	0	0	0	0	513	515	
13	0	0	0	0	523	557	
14	0	0	0	0	516	552	
15	0	0	0	0	510	550	
0	0	0	0	0	509	536	
1	0	0	0	0	511	533	
2	0	0	0	0	514	531	
3	0	0	0	0	510	528	
4	0	0	0	0	509	523	
5	0	0	0	0	509	521	
6	0	0	0	0	510	516	
7	0	0	0	0	513	534	
8	0	0	0	0	522	584	
9	0	0	0	0	526	593	
10	0	0	0	0	521	601	
11	0	0	0	0	511	619	
12	0	0	0	0	479	516	
13	0	0	0	0	475	382	
14	0	0	0	0	508	500	
15	0	0	0	0	511	541	
0	0	0	0	0	472	430	
1	0	0	0	0	495	394	
2	0	0	0	0	541	352	
3	0	0	0	0	572	392	
4	0	0	0	0	559	411	
5	0	0	0	0	536	427	
6	0	0	0	0	525	512	
7	0	0	0	0	513	537	
8	0	0	0	0	503	548	
9	0	0	0	0	502	555	
10	0	0	0	0	495	481	
11	0	0	0	0	501	503	
12	0	0	0	0	505	575	
13	0	0	0	0	510	593	
14	0	0	0	0	513	564	
15	0	0	0	0	513	560	
0	0	0	0	0	498	527	
1	0	0	0	0	477	442	
2	0	0	0	0	508	622	
3	0	0	0	0	540	796	
4	0	0	0	0	530	730	
5	0	0	0	0	503	620	
6	0	0	0	0	456	375	
7	0	0	0	0	454	248	
8	0	0	0	0	541	197	
9	0	0	0	0	569	295	
10	0	0	0	0	538	353	
11	0	0	0	0	509	365	
12	0	0	0	0	530	455	
13	0	0	0	0	536	622	
14	0	0	0	0	510	619	
15	0	0	0	0	486	513	
0	0	0	0	0	494	487	
1	0	0	0	0	507	534	
2	0	0	0	0	519	530	
3	0	0	0	0	521	539	
4	0	0	0	0	517	559	
5	0	0	0	0	508	592	
6	0	0	0	0	509	609	
7	0	0	0	0	503	559	
8	0	0	0	0	504	555	
9	0	0	0	0	503	608	
10	0	0	0	0	501	611	
11	0	0	0	0	515	577	
12	0	0	0	0	517	435	
13	0	0	0	0	507	429	
14	0	0	0	0	509	494	
15	0	0	0	0	524	529	
0	0	0	0	0	526	526	
1	0	0	0	0	498	438	
2	0	0	0	0	455	303	
3	0	0	0	0	476	335	
4	0	0	0	0	542	378	
5	0	0	0	0	563	442	
6	0	0	0	0	545	517	
7	0	0	0	0	517	528	
8	0	0	0	0	508	560	
9	0	0	0	0	512	538	
10	0	0	0	0	514	529	
11	0	0	0	0	512	558	
12	0	0	0	0	512	564	
13	0	0	0	0	509	555	
14	0	0	0	0	506	544	
15	0	0	0	0	505	536	
0	0	0	0	0	504	526	
1	0	0	0	0	510	519	
2	0	0	0	0	511	521	
3	0	0	0	0	516	557	
4	0	0	0	0	518	559	
5	0	0	0	0	513	576	
6	0	0	0	0	512	689	
7	0	0	0	0	510	762	
8	0	0	0	0	515	774	
9	0	0	0	0	498	579	
10	0	0	0	0	462	271	
11	0	0	0	0	456	0	
12	0	0	0	0	501	28	
13	0	0	0	0	553	353	
14	0	0	0	0	581	532	
15	0	0	0	0	568	599	
0	0	0	0	0	529	598	
1	0	0	0	0	492	459	
2	0	0	0	0	480	425	
3	0	0	0	0	515	527	
4	0	0	0	0	517	536	
5	0	0	0	0	513	534	
6	0	0	0	0	516	550	
7	0	0	0	0	513	542	
8	0	0	0	0	508	540	
9	0	0	0	0	503	550	
10	0	0	0	0	502	548	
11	0	0	0	0	504	544	
12	0	0	0	0	505	541	
13	0	0	0	0	507	531	
14	0	0	0	0	510	527	
15	0	0	0	0	513	541	
0	0	0	0	0	508	554	
1	0	0	0	0	506	580	
2	0	0	0	0	504	607	
3	0	0	0	0	499	642	
4	0	0	0	0	496	609	
5	0	0	0	0	505	413	
6	0	0	0	0	511	258	
7	0	0	0	0	518	327	
8	0	0	0	0	541	470	
9	0	0	0	0	546	555	
10	0	0	0	0	529	546	
11	0	0	0	0	511	472	
12	0	0	0	0	492	453	
13	0	0	0	0	490	379	
14	0	0	0	0	505	360	
15	0	0	0	0	532	492	
0	0	0	0	0	535	583	
1	0	0	0	0	524	557	
2	0	0	0	0	513	524	
3	0	0	0	0	512	532	
4	0	0	0	0	508	543	
5	0	0	0	0	509	545	
6	0	0	0	0	515	600	
7	0	0	0	0	519	649	
8	0	0	0	0	507	610	
9	0	0	0	0	495	623	
10	0	0	0	0	500	617	
11	0	0	0	0	472	490	
12	0	0	0	0	461	278	
13	0	0	0	0	481	297	
14	0	0	0	0	534	395	
15	0	0	0	0	560	569	
0	0	0	0	0	561	675	
1	0	0	0	0	545	670	
2	0	0	0	0	493	497	
3	0	0	0	0	475	332	
4	0	0	0	0	495	271	
5	0	0	0	0	509	324	
6	0	0	0	0	520	377	
7	0	0	0	0	551	440	
8	0	0	0	0	550	522	
9	0	0	0	0	528	586	
10	0	0	0	0	516	598	
11	0	0	0	0	508	589	
12	0	0	0	0	504	575	
13	0	0	0	0	503	569	
14	0	0	0	0	505	582	
15	0	0	0	0	502	600	
0	0	0	0	0	499	683	
1	0	0	0	0	508	762	
2	0	0	0	0	502	686	
3	0	0	0	0	487	510	
4	0	0	0	0	455	250	
5	0	0	0	0	468	99	
6	0	0	0	0	536	285	
7	0	0	0	0	572	508	
8	0	0	0	0	547	606	
9	0	0	0	0	510	516	
10	0	0	0	0	492	454	
11	0	0	0	0	504	366	
12	0	0	0	0	534	472	
13	0	0	0	0	541	549	
14	0	0	0	0	517	591	
15	0	0	0	0	503	557	
0	0	0	0	0	510	578	
1	0	0	0	0	512	603	
2	0	0	0	0	500	555	
3	0	0	0	0	498	520	
4	0	0	0	0	496	473	
5	0	0	0	0	508	494	
6	0	0	0	0	516	519	
7	0	0	0	0	514	473	
8	0	0	0	0	519	473	
9	0	0	0	0	519	497	
10	0	0	0	0	514	487	
11	0	0	0	0	522	487	
12	0	0	0	0	524	543	
13	0	0	0	0	520	559	
14	0	0	0	0	501	540	
15	0	0	0	0	483	512	
0	0	0	0	0	498	577	
1	0	0	0	0	503	635	
2	0	0	0	0	502	681	
3	0	0	0	0	497	702	
4	0	0	0	0	499	547	
5	0	0	0	0	497	414	
6	0	0	0	0	481	203	
7	0	0	0	0	484	70	
8	0	0	0	0	553	292	
9	0	0	0	0	592	461	
10	0	0	0	0	571	553	
11	0	0	0	0	540	634	
12	0	0	0	0	512	610	
13	0	0	0	0	490	534	
14	0	0	0	0	483	515	
15	0	0	0	0	489	488	
0	0	0	0	0	501	516	
1	0	0	0	0	510	557	
2	0	0	0	0	508	552	
3	0	0	0	0	510	537	
4	0	0	0	0	510	567	
5	0	0	0	0	517	656	
6	0	0	0	0	519	797	
7	0	0	0	0	518	824	
8	0	0	0	0	511	718	
9	0	0	0	0	473	546	
10	0	0	0	0	391	34	
11	0	0	0	0	428	0	
12	0	0	0	0	555	99	
13	0	0	0	0	638	557	
14	0	0	0	0	610	692	
15	0	0	0	0	543	617	
0	0	0	0	0	511	540	
1	0	0	0	0	511	515	
2	0	0	0	0	504	498	
3	0	0	0	0	504	539	
4	0	0	0	0	503	559	
5	0	0	0	0	510	504	
6	0	0	0	0	511	475	
7	0	0	0	0	511	499	
8	0	0	0	0	511	535	
9	0	0	0	0	505	551	
10	0	0	0	0	501	551	
11	0	0	0	0	505	542	
12	0	0	0	0	502	537	
13	0	0	0	0	503	541	
14	0	0	0	0	508	558	
15	0	0	0	0	512	647	
0	0	0	0	0	512	693	
1	0	0	0	0	511	659	
2	0	0	0	0	506	654	
3	0	0	0	0	457	455	
4	0	0	0	0	422	355	
5	0	0	0	0	509	298	
6	0	0	0	0	537	271	
7	0	0	0	0	515	342	
8	0	0	0	0	528	339	
9	0	0	0	0	566	436	
10	0	0	0	0	580	539	
11	0	0	0	0	564	564	
12	0	0	0	0	536	542	
13	0	0	0	0	518	568	
14	0	0	0	0	504	522	
15	0	0	0	0	502	487	
0	0	0	0	0	502	497	
1	0	0	0	0	506	531	
2	0	0	0	0	503	568	
3	0	0	0	0	496	572	
4	0	0	0	0	496	600	
5	0	0	0	0	494	592	
6	0	0	0	0	499	587	
7	0	0	0	0	511	600	
8	0	0	0	0	515	611	
9	0	0	0	0	519	609	
10	0	0	0	0	527	609	
11	0	0	0	0	499	502	
12	0	0	0	0	442	367	
13	0	0	0	0	436	265	
14	0	0	0	0	512	248	
15	0	0	0	0	566	338	
0	0	0	0	0	556	487	
1	0	0	0	0	540	512	
2	0	0	0	0	547	408	
3	0	0	0	0	551	400	
4	0	0	0	0	547	562	
5	0	0	0	0	529	672	
6	0	0	0	0	511	658	
7	0	0	0	0	498	604	
8	0	0	0	0	483	542	
9	0	0	0	0	464	423	
10	0	0	0	0	478	361	
11	0	0	0	0	507	422	
12	0	0	0	0	519	501	
13	0	0	0	0	517	547	
14	0	0	0	0	506	592	
15	0	0	0	0	504	607	
0	0	0	0	0	504	649	
1	0	0	0	0	508	743	
2	0	0	0	0	509	743	
3	0	0	0	0	499	640	
4	0	0	0	0	484	577	
5	0	0	0	0	461	398	
6	0	0	0	0	472	185	
7	0	0	0	0	521	108	
8	0	0	0	0	593	343	
9	0	0	0	0	591	511	
10	0	0	0	0	543	504	
11	0	0	0	0	535	480	
12	0	0	0	0	528	445	
13	0	0	0	0	520	436	
14	0	0	0	0	518	475	
15	0	0	0	0	520	547	
0	0	0	0	0	518	644	
1	0	0	0	0	509	644	
2	0	0	0	0	495	582	
3	0	0	0	0	477	567	
4	0	0	0	0	471	487	
5	0	0	0	0	472	382	
6	0	0	0	0	484	385	
7	0	0	0	0	520	490	
8	0	0	0	0	535	669	
9	0	0	0	0	521	721	
10	0	0	0	0	510	702	
11	0	0	0	0	499	633	
12	0	0	0	0	472	531	
13	0	0	0	0	469	435	
14	0	0	0	0	480	353	
15	0	0	0	0	512	355	
0	0	0	0	0	565	370	
1	0	0	0	0	564	483	
2	0	0	0	0	527	504	
3	0	0	0	0	519	378	
4	0	0	0	0	535	363	
5	0	0	0	0	539	470	
6	0	0	0	0	527	544	
7	0	0	0	0	516	611	
8	0	0	0	0	500	655	
9	0	0	0	0	495	642	
10	0	0	0	0	489	596	
11	0	0	0	0	492	572	
12	0	0	0	0	486	468	
13	0	0	0	0	491	345	
14	0	0	0	0	529	416	
15	0	0	0	0	545	506	
0	0	0	0	0	539	543	
1	0	0	0	0	526	525	
2	0	0	0	0	508	427	
3	0	0	0	0	497	439	
4	0	0	0	0	521	612	
5	0	0	0	0	513	651	
6	0	0	0	0	494	699	
7	0	0	0	0	480	782	
8	0	0	0	0	486	740	
9	0	0	0	0	512	539	
10	0	0	0	0	511	405	
11	0	0	0	0	445	350	
12	0	0	0	0	437	0	
13	0	0	0	0	540	0	
14	0	0	0	0	610	342	
15	0	0	0	0	617	637	
0	0	0	0	0	568	698	
1	0	0	0	0	522	699	
2	0	0	0	0	498	731	
3	0	0	0	0	483	729	
4	0	0	0	0	482	690	
5	0	0	0	0	480	622	
6	0	0	0	0	476	510	
7	0	0	0	0	471	362	
8	0	0	0	0	487	224	
9	0	0	0	0	519	298	
10	0	0	0	0	541	427	
11	0	0	0	0	547	524	
12	0	0	0	0	530	595	
13	0	0	0	0	512	575	
14	0	0	0	0	508	583	
15	0	0	0	0	515	629	
0	0	0	0	0	520	670	
1	0	0	0	0	519	725	
2	0	0	0	0	496	702	
3	0	0	0	0	479	590	
4	0	0	0	0	486	408	
5	0	0	0	0	487	183	
6	0	0	0	0	511	283	
7	0	0	0	0	520	291	
8	0	0	0	0	538	406	
9	0	0	0	0	559	508	
10	0	0	0	0	551	557	
11	0	0	0	0	528	545	
12	0	0	0	0	508	558	
13	0	0	0	0	501	550	
14	0	0	0	0	500	502	
15	0	0	0	0	496	531	
0	0	0	0	0	497	583	
1	0	0	0	0	492	584	
2	0	0	0	0	496	532	
3	0	0	0	0	505	554	
4	0	0	0	0	509	610	
5	0	0	0	0	511	615	
6	0	0	0	0	522	622	
7	0	0	0	0	523	612	
8	0	0	0	0	494	542	
9	0	0	0	0	474	359	
10	0	0	0	0	496	245	
11	0	0	0	0	516	188	
12	0	0	0	0	543	200	
13	0	0	0	0	564	370	
14	0	0	0	0	573	599	
15	0	0	0	0	550	654	
0	0	0	0	0	521	609	
1	0	0	0	0	501	584	
2	0	0	0	0	487	495	
3	0	0	0	0	485	475	
4	0	0	0	0	492	526	
5	0	0	0	0	522	572	
6	0	0	0	0	527	600	
7	0	0	0	0	516	653	
8	0	0	0	0	509	721	
9	0	0	0	0	496	710	
10	0	0	0	0	484	599	
11	0	0	0	0	440	498	
12	0	0	0	0	453	363	
13	0	0	0	0	491	225	
14	0	0	0	0	529	252	
15	0	0	0	0	586	496	
0	0	0	0	0	592	610	
1	0	0	0	0	537	483	
2	0	0	0	0	517	359	
3	0	0	0	0	524	436	
4	0	0	0	0	518	531	
5	0	0	0	0	518	581	
6	0	0	0	0	513	502	
7	0	0	0	0	504	458	
8	0	0	0	0	491	498	
9	0	0	0	0	486	520	
10	0	0	0	0	480	495	
11	0	0	0	0	484	478	
12	0	0	0	0	490	463	
13	0	0	0	0	504	487	
14	0	0	0	0	510	512	
15	0	0	0	0	513	524	
0	0	0	0	0	514	546	
1	0	0	0	0	514	612	
2	0	0	0	0	515	660	
3	0	0	0	0	517	675	
4	0	0	0	0	510	771	
5	0	0	0	0	498	773	
6	0	0	0	0	472	695	
7	0	0	0	0	488	572	
8	0	0	0	0	488	385	
9	0	0	0	0	444	120	
10	0	0	0	0	458	0	
11	0	0	0	0	574	0	
12	0	0	0	0	662	379	
13	0	0	0	0	655	625	
14	0	0	0	0	590	648	
15	0	0	0	0	535	627	
0	0	0	0	0	512	666	
1	0	0	0	0	498	664	
2	0	0	0	0	481	638	
3	0	0	0	0	476	621	
4	0	0	0	0	475	666	
5	0	0	0	0	472	698	
6	0	0	0	0	478	690	
7	0	0	0	0	497	614	
8	0	0	0	0	493	597	
9	0	0	0	0	450	403	
10	0	0	0	0	445	0	
11	0	0	0	0	512	99	
12	0	0	0	0	576	469	
13	0	0	0	0	576	700	
14	0	0	0	0	539	657	
15	0	0	0	0	509	428	
0	0	0	0	0	512	470	
1	0	0	0	0	524	577	
2	0	0	0	0	534	520	
3	0	0	0	0	545	536	
4	0	0	0	0	528	584	
5	0	0	0	0	494	554	
6	0	0	0	0	464	445	
7	0	0	0	0	481	324	
8	0	0	0	0	507	377	
9	0	0	0	0	533	501	
10	0	0	0	0	527	609	
11	0	0	0	0	514	598	
12	0	0	0	0	506	565	
13	0	0	0	0	511	588	
14	0	0	0	0	501	591	
15	0	0	0	0	492	639	
0	0	0	0	0	480	581	
1	0	0	0	0	473	476	
2	0	0	0	0	497	354	
3	0	0	0	0	530	371	
4	0	0	0	0	557	530	
5	0	0	0	0	543	524	
6	0	0	0	0	508	404	
7	0	0	0	0	495	439	
8	0	0	0	0	493	543	
9	0	0	0	0	487	452	
10	0	0	0	0	510	390	
11	0	0	0	0	542	473	
12	0	0	0	0	547	539	
13	0	0	0	0	536	554	
14	0	0	0	0	539	534	
15	0	0	0	0	531	527	
0	0	0	0	0	523	588	
1	0	0	0	0	514	652	
2	0	0	0	0	502	687	
3	0	0	0	0	494	639	
4	0	0	0	0	484	633	
5	0	0	0	0	486	580	
6	0	0	0	0	472	484	
7	0	0	0	0	472	296	
8	0	0	0	0	500	239	
9	0	0	0	0	527	345	
10	0	0	0	0	553	359	
11	0	0	0	0	559	418	
12	0	0	0	0	545	475	
13	0	0	0	0	520	500	
14	0	0	0	0	504	564	
15	0	0	0	0	494	611	
0	0	0	0	0	495	647	
1	0	0	0	0	499	628	
2	0	0	0	0	489	630	
3	0	0	0	0	484	643	
4	0	0	0	0	491	636	
5	0	0	0	0	487	578	
6	0	0	0	0	484	369	
7	0	0	0	0	492	250	
8	0	0	0	0	509	173	
9	0	0	0	0	536	153	
10	0	0	0	0	587	365	
11	0	0	0	0	595	623	
12	0	0	0	0	575	750	
13	0	0	0	0	537	738	
14	0	0	0	0	506	689	
15	0	0	0	0	483	581	
0	0	0	0	0	477	453	
1	0	0	0	0	466	461	
2	0	0	0	0	472	440	
3	0	0	0	0	507	453	
4	0	0	0	0	517	506	
5	0	0	0	0	516	525	
6	0	0	0	0	515	540	
7	0	0	0	0	520	509	
8	0	0	0	0	525	503	
9	0	0	0	0	527	644	
10	0	0	0	0	528	780	
11	0	0	0	0	526	768	
12	0	0	0	0	505	681	
13	0	0	0	0	465	565	
14	0	0	0	0	389	350	
15	0	0	0	0	399	0	
0	0	0	0	0	512	0	
1	0	0	0	0	609	278	
2	0	0	0	0	639	633	
3	0	0	0	0	615	721	
4	0	0	0	0	568	652	
5	0	0	0	0	514	582	
6	0	0	0	0	478	514	
7	0	0	0	0	465	409	
8	0	0	0	0	491	476	
9	0	0	0	0	511	571	
10	0	0	0	0	511	608	
11	0	0	0	0	508	680	
12	0	0	0	0	505	722	
13	0	0	0	0	497	688	
14	0	0	0	0	488	616	
15	0	0	0	0	486	550	
0	0	0	0	0	472	435	
1	0	0	0	0	442	224	
2	0	0	0	0	476	107	
3	0	0	0	0	563	259	
4	0	0	0	0	607	450	
5	0	0	0	0	593	605	
6	0	0	0	0	544	647	
7	0	0	0	0	499	622	
8	0	0	0	0	497	626	
9	0	0	0	0	488	588	
10	0	0	0	0	481	563	
11	0	0	0	0	475	446	
12	0	0	0	0	480	335	
13	0	0	0	0	492	310	
14	0	0	0	0	526	416	
15	0	0	0	0	532	547	
0	0	0	0	0	522	595	
1	0	0	0	0	519	620	
2	0	0	0	0	521	591	
3	0	0	0	0	517	523	
4	0	0	0	0	506	447	
5	0	0	0	0	526	540	
6	0	0	0	0	553	652	
7	0	0	0	0	550	716	
8	0	0	0	0	529	823	
9	0	0	0	0	486	760	
10	0	0	0	0	468	450	
11	0	0	0	0	505	455	
12	0	0	0	0	489	521	
13	0	0	0	0	423	240	
14	0	0	0	0	429	0	
15	0	0	0	0	523	0	
0	0	0	0	0	599	400	
1	0	0	0	0	619	581	
2	0	0	0	0	582	630	
3	0	0	0	0	528	667	
4	0	0	0	0	499	646	
5	0	0	0	0	492	622	
6	0	0	0	0	486	630	
7	0	0	0	0	487	671	
8	0	0	0	0	489	617	
9	0	0	0	0	487	467	
10	0	0	0	0	483	343	
11	0	0	0	0	484	301	
12	0	0	0	0	489	257	
13	0	0	0	0	512	278	
14	0	0	0	0	539	488	
15	0	0	0	0	560	654	
0	0	0	0	0	563	732	
1	0	0	0	0	532	715	
2	0	0	0	0	506	666	
3	0	0	0	0	500	686	
4	0	0	0	0	483	622	
5	0	0	0	0	487	511	
6	0	0	0	0	513	504	
7	0	0	0	0	515	480	
8	0	0	0	0	500	451	
9	0	0	0	0	497	455	
10	0	0	0	0	512	549	
11	0	0	0	0	545	656	
12	0	0	0	0	549	662	
13	0	0	0	0	515	543	
14	0	0	0	0	470	320	
15	0	0	0	0	456	113	
0	0	0	0	0	484	59	
1	0	0	0	0	518	232	
2	0	0	0	0	556	513	
3	0	0	0	0	566	633	
4	0	0	0	0	538	619	
5	0	0	0	0	511	588	
6	0	0	0	0	484	499	
7	0	0	0	0	494	510	
8	0	0	0	0	516	547	
9	0	0	0	0	518	603	
10	0	0	0	0	511	608	
11	0	0	0	0	516	547	
12	0	0	0	0	522	519	
13	0	0	0	0	513	559	
14	0	0	0	0	495	579	
15	0	0	0	0	488	593	
0	0	0	0	0	488	604	
1	0	0	0	0	489	627	
2	0	0	0	0	505	665	
3	0	0	0	0	514	682	
4	0	0	0	0	527	697	
5	0	0	0	0	511	611	
6	0	0	0	0	491	470	
7	0	0	0	0	474	363	
8	0	0	0	0	467	196	
9	0	0	0	0	473	65	
10	0	0	0	0	512	38	
11	0	0	0	0	570	332	
12	0	0	0	0	602	471	
13	0	0	0	0	591	502	
14	0	0	0	0	571	567	
15	0	0	0	0	544	654	
0	0	0	0	0	531	757	
1	0	0	0	0	517	799	
2	0	0	0	0	495	728	
3	0	0	0	0	478	627	
4	0	0	0	0	435	455	
5	0	0	0	0	439	254	
6	0	0	0	0	499	195	
7	0	0	0	0	523	227	
8	0	0	0	0	546	412	
9	0	0	0	0	547	586	
10	0	0	0	0	528	676	
11	0	0	0	0	506	706	
12	0	0	0	0	480	656	
13	0	0	0	0	487	602	
14	0	0	0	0	500	583	
15	0	0	0	0	486	519	
0	0	0	0	0	467	354	
1	0	0	0	0	490	246	
2	0	0	0	0	525	307	
3	0	0	0	0	548	435	
4	0	0	0	0	556	551	
5	0	0	0	0	548	641	
6	0	0	0	0	531	643	
7	0	0	0	0	518	652	
8	0	0	0	0	508	688	
9	0	0	0	0	493	662	
10	0	0	0	0	490	577	
11	0	0	0	0	484	525	
12	0	0	0	0	467	515	
13	0	0	0	0	468	308	
14	0	0	0	0	498	186	
15	0	0	0	0	542	226	
0	0	0	0	0	581	360	
1	0	0	0	0	593	539	
2	0	0	0	0	569	628	
3	0	0	0	0	537	636	
4	0	0	0	0	501	606	
5	0	0	0	0	478	581	
6	0	0	0	0	471	567	
7	0	0	0	0	469	552	
8	0	0	0	0	467	545	
9	0	0	0	0	482	533	
10	0	0	0	0	511	535	
11	0	0	0	0	527	590	
12	0	0	0	0	536	594	
13	0	0	0	0	539	564	
14	0	0	0	0	540	552	
15	0	0	0	0	513	523	
0	0	0	0	0	480	529	
1	0	0	0	0	485	460	
2	0	0	0	0	510	511	
3	0	0	0	0	508	620	
4	0	0	0	0	524	548	
5	0	0	0	0	535	519	
6	0	0	0	0	517	474	
7	0	0	0	0	483	343	
8	0	0	0	0	471	281	
9	0	0	0	0	503	360	
10	0	0	0	0	518	449	
11	0	0	0	0	516	453	
12	0	0	0	0	511	484	
13	0	0	0	0	499	350	
14	0	0	0	0	508	387	
15	0	0	0	0	523	436	
0	0	0	0	0	545	452	
1	0	0	0	0	557	476	
2	0	0	0	0	558	563	
3	0	0	0	0	535	609	
4	0	0	0	0	507	643	
5	0	0	0	0	482	700	
6	0	0	0	0	474	711	
7	0	0	0	0	470	734	
8	0	0	0	0	479	669	
9	0	0	0	0	477	528	
10	0	0	0	0	468	203	
11	0	0	0	0	521	126	
12	0	0	0	0	569	339	
13	0	0	0	0	579	551	
14	0	0	0	0	560	641	
15	0	0	0	0	545	620	
0	0	0	0	0	532	653	
1	0	0	0	0	501	646	
2	0	0	0	0	478	540	
3	0	0	0	0	484	409	
4	0	0	0	0	494	391	
5	0	0	0	0	482	328	
6	0	0	0	0	499	311	
7	0	0	0	0	520	389	
8	0	0	0	0	531	521	
9	0	0	0	0	547	617	
10	0	0	0	0	543	625	
11	0	0	0	0	509	604	
12	0	0	0	0	467	503	
13	0	0	0	0	476	322	
14	0	0	0	0	498	414	
15	0	0	0	0	515	542	
0	0	0	0	0	524	616	
1	0	0	0	0	527	687	
2	0	0	0	0	518	684	
3	0	0	0	0	496	625	
4	0	0	0	0	495	539	
5	0	0	0	0	494	386	
6	0	0	0	0	493	304	
7	0	0	0	0	539	368	
8	0	0	0	0	572	531	
9	0	0	0	0	566	664	
10	0	0	0	0	550	748	
11	0	0	0	0	519	821	
12	0	0	0	0	503	823	
13	0	0	0	0	469	749	
14	0	0	0	0	435	544	
15	0	0	0	0	421	220	
0	0	0	0	0	433	30	
1	0	0	0	0	498	79	
2	0	0	0	0	549	116	
3	0	0	0	0	572	167	
4	0	0	0	0	591	390	
5	0	0	0	0	583	650	
6	0	0	0	0	554	761	
7	0	0	0	0	517	710	
8	0	0	0	0	488	641	
9	0	0	0	0	468	557	
10	0	0	0	0	480	493	
11	0	0	0	0	494	462	
12	0	0	0	0	507	436	
13	0	0	0	0	519	480	
14	0	0	0	0	519	553	
15	0	0	0	0	510	611	
0	0	0	0	0	505	643	
1	0	0	0	0	508	675	
2	0	0	0	0	511	752	
3	0	0	0	0	506	840	
4	0	0	0	0	487	824	
5	0	0	0	0	481	644	
6	0	0	0	0	498	493	
7	0	0	0	0	491	408	
8	0	0	0	0	455	94	
9	0	0	0	0	476	0	
10	0	0	0	0	526	0	
11	0	0	0	0	590	291	
12	0	0	0	0	608	500	
13	0	0	0	0	580	454	
14	0	0	0	0	545	429	
15	0	0	0	0	527	520	
0	0	0	0	0	523	632	
1	0	0	0	0	522	740	
2	0	0	0	0	516	795	
3	0	0	0	0	500	778	
4	0	0	0	0	479	732	
5	0	0	0	0	443	647	
6	0	0	0	0	429	535	
7	0	0	0	0	423	329	
8	0	0	0	0	492	147	
9	0	0	0	0	548	285	
10	0	0	0	0	582	513	
11	0	0	0	0	582	665	
12	0	0	0	0	555	688	
13	0	0	0	0	524	656	
14	0	0	0	0	502	669	
15	0	0	0	0	497	678	
0	0	0	0	0	489	562	
1	0	0	0	0	495	486	
2	0	0	0	0	492	417	
3	0	0	0	0	487	358	
4	0	0	0	0	498	230	
5	0	0	0	0	528	331	
6	0	0	0	0	543	502	
7	0	0	0	0	523	549	
8	0	0	0	0	505	604	
9	0	0	0	0	501	622	
10	0	0	0	0	511	606	
11	0	0	0	0	508	598	
12	0	0	0	0	484	529	
13	0	0	0	0	464	266	
14	0	0	0	0	509	85	
15	0	0	0	0	551	276	
0	0	0	0	0	564	505	
1	0	0	0	0	559	619	
2	0	0	0	0	531	690	
3	0	0	0	0	513	728	
4	0	0	0	0	493	653	
5	0	0	0	0	496	577	
6	0	0	0	0	499	559	
7	0	0	0	0	484	477	
8	0	0	0	0	488	345	
9	0	0	0	0	511	344	
10	0	0	0	0	540	465	
11	0	0	0	0	545	544	
12	0	0	0	0	536	567	
13	0	0	0	0	524	544	
14	0	0	0	0	505	513	
15	0	0	0	0	496	515	
0	0	0	0	0	491	539	
1	0	0	0	0	489	556	
2	0	0	0	0	499	574	
3	0	0	0	0	504	595	
4	0	0	0	0	505	599	
5	0	0	0	0	507	594	
6	0	0	0	0	519	560	
7	0	0	0	0	525	551	
8	0	0	0	0	519	633	
9	0	0	0	0	513	692	
10	0	0	0	0	508	645	
11	0	0	0	0	502	497	
12	0	0	0	0	486	306	
13	0	0	0	0	468	156	
14	0	0	0	0	487	0	
15	0	0	0	0	515	0	
0	0	0	0	0	565	409	
1	0	0	0	0	592	610	
2	0	0	0	0	571	623	
3	0	0	0	0	534	600	
4	0	0	0	0	511	571	
5	0	0	0	0	498	590	
6	0	0	0	0	494	577	
7	0	0	0	0	497	571	
8	0	0	0	0	492	604	
9	0	0	0	0	484	599	
10	0	0	0	0	480	575	
11	0	0	0	0	484	598	
12	0	0	0	0	497	602	
13	0	0	0	0	505	530	
14	0	0	0	0	513	500	
15	0	0	0	0	516	552	
0	0	0	0	0	517	627	
1	0	0	0	0	523	671	
2	0	0	0	0	519	683	
3	0	0	0	0	497	675	
4	0	0	0	0	478	529	
5	0	0	0	0	476	309	
6	0	0	0	0	494	130	
7	0	0	0	0	550	143	
8	0	0	0	0	594	326	
9	0	0	0	0	591	530	
10	0	0	0	0	572	557	
11	0	0	0	0	531	428	
12	0	0	0	0	502	367	
13	0	0	0	0	504	428	
14	0	0	0	0	504	544	
15	0	0	0	0	494	573	
0	0	0	0	0	486	534	
1	0	0	0	0	491	583	
2	0	0	0	0	498	654	
3	0	0	0	0	505	731	
4	0	0	0	0	503	750	
5	0	0	0	0	489	707	
6	0	0	0	0	466	731	
7	0	0	0	0	464	674	
8	0	0	0	0	463	545	
9	0	0	0	0	487	279	
10	0	0	0	0	506	162	
11	0	0	0	0	517	105	
12	0	0	0	0	541	0	
13	0	0	0	0	582	205	
14	0	0	0	0	607	534	
15	0	0	0	0	589	679	
0	0	0	0	0	544	669	
1	0	0	0	0	499	638	
2	0	0	0	0	480	656	
3	0	0	0	0	478	656	
4	0	0	0	0	485	596	
5	0	0	0	0	487	548	
6	0	0	0	0	473	490	
7	0	0	0	0	486	424	
8	0	0	0	0	506	440	
9	0	0	0	0	523	442	
10	0	0	0	0	533	480	
11	0	0	0	0	538	520	
12	0	0	0	0	557	588	
13	0	0	0	0	560	601	
14	0	0	0	0	538	620	
15	0	0	0	0	511	545	
0	0	0	0	0	479	443	
1	0	0	0	0	456	433	
2	0	0	0	0	477	486	
3	0	0	0	0	523	502	
4	0	0	0	0	532	513	
5	0	0	0	0	513	542	
6	0	0	0	0	500	579	
7	0	0	0	0	480	584	
8	0	0	0	0	492	550	
9	0	0	0	0	509	543	
10	0	0	0	0	506	584	
11	0	0	0	0	511	617	
12	0	0	0	0	537	628	
13	0	0	0	0	519	559	
14	0	0	0	0	474	400	
15	0	0	0	0	418	152	
0	0	0	0	0	435	0	
1	0	0	0	0	544	92	
2	0	0	0	0	629	449	
3	0	0	0	0	630	741	
4	0	0	0	0	598	836	
5	0	0	0	0	562	797	
6	0	0	0	0	524	737	
7	0	0	0	0	475	686	
8	0	0	0	0	428	599	
9	0	0	0	0	412	343	
10	0	0	0	0	468	279	
11	0	0	0	0	513	342	
12	0	0	0	0	513	260	
13	0	0	0	0	507	264	
14	0	0	0	0	524	408	
15	0	0	0	0	536	569	
0	0	0	0	0	527	649	
1	0	0	0	0	521	657	
2	0	0	0	0	518	653	
3	0	0	0	0	520	646	
4	0	0	0	0	512	652	
5	0	0	0	0	502	648	
6	0	0	0	0	490	600	
7	0	0	0	0	505	549	
8	0	0	0	0	520	551	
9	0	0	0	0	504	573	
10	0	0	0	0	501	515	
11	0	0	0	0	513	411	
12	0	0	0	0	535	440	
13	0	0	0	0	516	491	
14	0	0	0	0	474	510	
15	0	0	0	0	476	526	
0	0	0	0	0	508	543	
1	0	0	0	0	545	500	
2	0	0	0	0	528	345	
3	0	0	0	0	489	119	
4	0	0	0	0	492	103	
5	0	0	0	0	526	252	
6	0	0	0	0	561	474	
7	0	0	0	0	558	680	
8	0	0	0	0	543	750	
9	0	0	0	0	520	758	
10	0	0	0	0	511	719	
11	0	0	0	0	501	619	
12	0	0	0	0	483	590	
13	0	0	0	0	460	548	
14	0	0	0	0	461	574	
15	0	0	0	0	475	466	
0	0	0	0	0	515	408	
1	0	0	0	0	541	513	
2	0	0	0	0	544	511	
3	0	0	0	0	514	409	
4	0	0	0	0	491	270	
5	0	0	0	0	531	250	
6	0	0	0	0	558	446	
7	0	0	0	0	568	716	
8	0	0	0	0	540	792	
9	0	0	0	0	517	796	
10	0	0	0	0	501	684	
11	0	0	0	0	483	578	
12	0	0	0	0	453	477	
13	0	0	0	0	424	328	
14	0	0	0	0	456	170	
15	0	0	0	0	514	120	
0	0	0	0	0	571	253	
1	0	0	0	0	576	434	
2	0	0	0	0	560	575	
3	0	0	0	0	545	680	
4	0	0	0	0	534	686	
5	0	0	0	0	510	655	
6	0	0	0	0	477	568	
7	0	0	0	0	455	519	
8	0	0	0	0	448	506	
9	0	0	0	0	504	411	
10	0	0	0	0	545	461	
11	0	0	0	0	550	505	
12	0	0	0	0	552	563	
13	0	0	0	0	534	609	
14	0	0	0	0	502	601	
15	0	0	0	0	476	557	
0	0	0	0	0	486	542	
1	0	0	0	0	492	547	
2	0	0	0	0	498	545	
3	0	0	0	0	509	513	
4	0	0	0	0	511	489	
5	0	0	0	0	513	491	
6	0	0	0	0	516	528	
7	0	0	0	0	523	609	
8	0	0	0	0	522	648	
9	0	0	0	0	515	675	
10	0	0	0	0	493	678	
11	0	0	0	0	464	529	
12	0	0	0	0	472	323	
13	0	0	0	0	519	273	
14	0	0	0	0	543	271	
15	0	0	0	0	555	359	
0	0	0	0	0	548	382	
1	0	0	0	0	531	336	
2	0	0	0	0	519	352	
3	0	0	0	0	521	408	
4	0	0	0	0	524	459	
5	0	0	0	0	522	520	
6	0	0	0	0	527	587	
7	0	0	0	0	520	624	
8	0	0	0	0	499	623	
9	0	0	0	0	489	578	
10	0	0	0	0	478	545	
11	0	0	0	0	487	539	
12	0	0	0	0	502	540	
13	0	0	0	0	508	617	
14	0	0	0	0	512	719	
15	0	0	0	0	516	757	
0	0	0	0	0	500	711	
1	0	0	0	0	460	594	
2	0	0	0	0	426	379	
3	0	0	0	0	453	150	
4	0	0	0	0	520	0	
5	0	0	0	0	597	246	
6	0	0	0	0	617	417	
7	0	0	0	0	581	541	
8	0	0	0	0	550	606	
9	0	0	0	0	523	619	
10	0	0	0	0	511	639	
11	0	0	0	0	509	679	
12	0	0	0	0	502	700	
13	0	0	0	0	505	723	
14	0	0	0	0	503	700	
15	0	0	0	0	480	559	
0	0	0	0	0	441	400	
1	0	0	0	0	438	198	
2	0	0	0	0	501	177	
3	0	0	0	0	547	353	
4	0	0	0	0	561	455	
5	0	0	0	0	564	540	
6	0	0	0	0	543	565	
7	0	0	0	0	520	591	
8	0	0	0	0	516	605	
9	0	0	0	0	512	617	
10	0	0	0	0	508	639	
11	0	0	0	0	510	629	
12	0	0	0	0	508	611	
13	0	0	0	0	497	507	
14	0	0	0	0	480	442	
15	0	0	0	0	476	523	
0	0	0	0	0	486	604	
1	0	0	0	0	496	619	
2	0	0	0	0	508	597	
3	0	0	0	0	480	348	
4	0	0	0	0	462	212	
5	0	0	0	0	483	119	
6	0	0	0	0	539	211	
7	0	0	0	0	578	402	
8	0	0	0	0	568	457	
9	0	0	0	0	542	458	
10	0	0	0	0	547	553	
11	0	0	0	0	548	604	
12	0	0	0	0	526	554	
13	0	0	0	0	512	544	
14	0	0	0	0	502	580	
15	0	0	0	0	495	608	
0	0	0	0	0	492	612	
1	0	0	0	0	489	595	
2	0	0	0	0	494	587	
3	0	0	0	0	506	583	
4	0	0	0	0	510	583	
5	0	0	0	0	507	584	
6	0	0	0	0	513	613	
7	0	0	0	0	517	627	
8	0	0	0	0	516	610	
9	0	0	0	0	509	574	
10	0	0	0	0	487	503	
11	0	0	0	0	476	395	
12	0	0	0	0	468	207	
13	0	0	0	0	511	351	
14	0	0	0	0	555	522	
15	0	0	0	0	563	550	
0	0	0	0	0	560	580	
1	0	0	0	0	529	537	
2	0	0	0	0	481	391	
3	0	0	0	0	480	280	
4	0	0	0	0	523	448	
5	0	0	0	0	561	667	
6	0	0	0	0	544	728	
7	0	0	0	0	514	663	
8	0	0	0	0	486	481	
9	0	0	0	0	442	322	
10	0	0	0	0	433	239	
11	0	0	0	0	504	291	
12	0	0	0	0	556	400	
13	0	0	0	0	556	538	
14	0	0	0	0	527	621	
15	0	0	0	0	503	731	
0	0	0	0	0	489	754	
1	0	0	0	0	483	687	
2	0	0	0	0	478	628	
3	0	0	0	0	469	463	
4	0	0	0	0	471	205	
5	0	0	0	0	524	95	
6	0	0	0	0	579	266	
7	0	0	0	0	589	449	
8	0	0	0	0	573	577	
9	0	0	0	0	547	632	
10	0	0	0	0	528	629	
11	0	0	0	0	508	604	
12	0	0	0	0	490	587	
13	0	0	0	0	487	583	
14	0	0	0	0	488	590	
15	0	0	0	0	493	608	
0	0	0	0	0	499	589	
1	0	0	0	0	503	569	
2	0	0	0	0	502	519	
3	0	0	0	0	497	448	
4	0	0	0	0	509	399	
5	0	0	0	0	523	448	
6	0	0	0	0	519	578	
7	0	0	0	0	508	648	
8	0	0	0	0	491	643	
9	0	0	0	0	467	510	
10	0	0	0	0	480	462	
11	0	0	0	0	496	443	
12	0	0	0	0	534	427	
13	0	0	0	0	542	389	
14	0	0	0	0	540	376	
15	0	0	0	0	540	319	
0	0	0	0	0	531	344	
1	0	0	0	0	538	463	
2	0	0	0	0	542	573	
3	0	0	0	0	541	636	
4	0	0	0	0	524	627	
5	0	0	0	0	500	581	
6	0	0	0	0	475	540	
7	0	0	0	0	457	484	
8	0	0	0	0	479	444	
9	0	0	0	0	510	441	
10	0	0	0	0	533	503	
11	0	0	0	0	531	547	
12	0	0	0	0	523	572	
13	0	0	0	0	514	564	
14	0	0	0	0	510	577	
15	0	0	0	0	513	582	
0	0	0	0	0	513	579	
1	0	0	0	0	516	575	
2	0	0	0	0	511	582	
3	0	0	0	0	487	563	
4	0	0	0	0	480	538	
5	0	0	0	0	512	475	
6	0	0	0	0	524	447	
7	0	0	0	0	497	419	
8	0	0	0	0	499	376	
9	0	0	0	0	525	399	
10	0	0	0	0	558	499	
11	0	0	0	0	555	547	
12	0	0	0	0	530	536	
13	0	0	0	0	493	393	
14	0	0	0	0	477	343	
15	0	0	0	0	478	388	
0	0	0	0	0	477	443	
1	0	0	0	0	494	461	
2	0	0	0	0	519	537	
3	0	0	0	0	529	698	
4	0	0	0	0	528	781	
5	0	0	0	0	529	763	
6	0	0	0	0	521	703	
7	0	0	0	0	468	496	
8	0	0	0	0	425	126	
9	0	0	0	0	475	74	
10	0	0	0	0	541	279	
11	0	0	0	0	576	535	
12	0	0	0	0	583	659	
13	0	0	0	0	562	695	
14	0	0	0	0	521	642	
15	0	0	0	0	496	584	
0	0	0	0	0	497	561	
1	0	0	0	0	504	591	
2	0	0	0	0	490	492	
3	0	0	0	0	505	360	
4	0	0	0	0	525	301	
5	0	0	0	0	547	430	
6	0	0	0	0	548	560	
7	0	0	0	0	529	598	
8	0	0	0	0	513	584	
9	0	0	0	0	504	582	
10	0	0	0	0	489	608	
11	0	0	0	0	481	575	
12	0	0	0	0	471	533	
13	0	0	0	0	472	421	
14	0	0	0	0	469	335	
15	0	0	0	0	489	406	
0	0	0	0	0	526	448	
1	0	0	0	0	536	506	
2	0	0	0	0	535	542	
3	0	0	0	0	524	590	
4	0	0	0	0	516	570	
5	0	0	0	0	515	552	
6	0	0	0	0	510	553	
7	0	0	0	0	514	590	
8	0	0	0	0	505	582	
9	0	0	0	0	497	419	
10	0	0	0	0	516	348	
11	0	0	0	0	543	419	
12	0	0	0	0	544	479	
13	0	0	0	0	532	513	
14	0	0	0	0	512	486	
15	0	0	0	0	513	527	
0	0	0	0	0	505	568	
1	0	0	0	0	503	556	
2	0	0	0	0	493	535	
3	0	0	0	0	493	524	
4	0	0	0	0	504	532	
5	0	0	0	0	516	523	
6	0	0	0	0	520	512	
7	0	0	0	0	518	515	
8	0	0	0	0	508	514	
9	0	0	0	0	490	511	
10	0	0	0	0	500	532	
11	0	0	0	0	507	497	
12	0	0	0	0	517	454	
13	0	0	0	0	521	471	
14	0	0	0	0	519	482	
15	0	0	0	0	516	484	
0	0	0	0	0	518	561	
1	0	0	0	0	524	681	
2	0	0	0	0	522	736	
3	0	0	0	0	516	734	
4	0	0	0	0	474	562	
5	0	0	0	0	439	228	
6	0	0	0	0	471	123	
7	0	0	0	0	514	329	
8	0	0	0	0	539	492	
9	0	0	0	0	564	489	
10	0	0	0	0	561	505	
11	0	0	0	0	531	533	
12	0	0	0	0	529	422	
13	0	0	0	0	524	415	
14	0	0	0	0	515	513	
15	0	0	0	0	513	505	
0	0	0	0	0	519	541	
1	0	0	0	0	521	577	
2	0	0	0	0	507	573	
3	0	0	0	0	508	590	
4	0	0	0	0	512	661	
5	0	0	0	0	508	633	
6	0	0	0	0	493	579	
7	0	0	0	0	469	510	
8	0	0	0	0	447	405	
9	0	0	0	0	487	486	
10	0	0	0	0	528	497	
11	0	0	0	0	548	594	
12	0	0	0	0	536	567	
13	0	0	0	0	510	340	
14	0	0	0	0	512	368	
15	0	0	0	0	503	442	
0	0	0	0	0	507	465	
1	0	0	0	0	505	428	
2	0	0	0	0	488	332	
3	0	0	0	0	508	371	
4	0	0	0	0	531	506	
5	0	0	0	0	544	632	
6	0	0	0	0	531	639	
7	0	0	0	0	507	558	
8	0	0	0	0	503	494	
9	0	0	0	0	524	493	
10	0	0	0	0	534	562	
11	0	0	0	0	531	600	
12	0	0	0	0	519	624	
13	0	0	0	0	511	644	
14	0	0	0	0	499	624	
15	0	0	0	0	483	579	
0	0	0	0	0	477	550	
1	0	0	0	0	478	417	
2	0	0	0	0	499	328	
3	0	0	0	0	519	341	
4	0	0	0	0	527	451	
5	0	0	0	0	521	481	
6	0	0	0	0	534	505	
7	0	0	0	0	531	537	
8	0	0	0	0	512	542	
9	0	0	0	0	500	571	
10	0	0	0	0	494	579	
11	0	0	0	0	496	532	
12	0	0	0	0	492	454	
13	0	0	0	0	493	432	
14	0	0	0	0	516	459	
15	0	0	0	0	538	519	
0	0	0	0	0	535	540	
1	0	0	0	0	527	552	
2	0	0	0	0	522	559	
3	0	0	0	0	520	570	
4	0	0	0	0	510	565	
5	0	0	0	0	492	510	
6	0	0	0	0	493	490	
7	0	0	0	0	495	377	
8	0	0	0	0	512	382	
9	0	0	0	0	526	489	
10	0	0	0	0	528	573	
11	0	0	0	0	512	609	
12	0	0	0	0	506	600	
13	0	0	0	0	490	505	
14	0	0	0	0	485	369	
15	0	0	0	0	511	390	
0	0	0	0	0	526	471	
1	0	0	0	0	536	535	
2	0	0	0	0	536	551	
3	0	0	0	0	515	553	
4	0	0	0	0	495	528	
5	0	0	0	0	499	499	
6	0	0	0	0	511	527	
7	0	0	0	0	511	511	
8	0	0	0	0	512	441	
9	0	0	0	0	521	505	
10	0	0	0	0	528	604	
11	0	0	0	0	500	656	
12	0	0	0	0	459	531	
13	0	0	0	0	460	366	
14	0	0	0	0	525	305	
15	0	0	0	0	553	437	
0	0	0	0	0	541	487	
1	0	0	0	0	538	498	
2	0	0	0	0	531	527	
3	0	0	0	0	523	523	
4	0	0	0	0	521	528	
5	0	0	0	0	516	569	
6	0	0	0	0	508	600	
7	0	0	0	0	500	595	
8	0	0	0	0	495	574	
9	0	0	0	0	484	488	
10	0	0	0	0	477	523	
11	0	0	0	0	499	641	
12	0	0	0	0	510	620	
13	0	0	0	0	487	491	
14	0	0	0	0	472	300	
15	0	0	0	0	511	220	
0	0	0	0	0	564	382	
1	0	0	0	0	600	690	
2	0	0	0	0	569	825	
3	0	0	0	0	511	725	
4	0	0	0	0	413	488	
5	0	0	0	0	384	206	
6	0	0	0	0	508	129	
7	0	0	0	0	608	343	
8	0	0	0	0	607	489	
9	0	0	0	0	558	471	
10	0	0	0	0	522	489	
11	0	0	0	0	504	501	
12	0	0	0	0	508	581	
13	0	0	0	0	511	622	
14	0	0	0	0	500	620	
15	0	0	0	0	490	605	
0	0	0	0	0	488	571	
1	0	0	0	0	487	543	
2	0	0	0	0	484	558	
3	0	0	0	0	493	550	
4	0	0	0	0	501	535	
5	0	0	0	0	519	537	
6	0	0	0	0	516	523	
7	0	0	0	0	504	460	
8	0	0	0	0	501	311	
9	0	0	0	0	530	380	
10	0	0	0	0	550	511	
11	0	0	0	0	539	597	
12	0	0	0	0	497	572	
13	0	0	0	0	490	500	
14	0	0	0	0	509	484	
15	0	0	0	0	525	527	
0	0	0	0	0	529	541	
1	0	0	0	0	516	550	
2	0	0	0	0	508	577	
3	0	0	0	0	497	550	
4	0	0	0	0	484	458	
5	0	0	0	0	501	391	
6	0	0	0	0	516	432	
7	0	0	0	0	512	502	
8	0	0	0	0	508	531	
9	0	0	0	0	517	539	
10	0	0	0	0	522	521	
11	0	0	0	0	520	504	
12	0	0	0	0	519	498	
13	0	0	0	0	512	502	
14	0	0	0	0	506	520	
15	0	0	0	0	497	520	
0	0	0	0	0	500	526	
1	0	0	0	0	510	534	
2	0	0	0	0	509	540	
3	0	0	0	0	510	574	
4	0	0	0	0	511	575	
5	0	0	0	0	509	557	
6	0	0	0	0	504	513	
7	0	0	0	0	497	433	
8	0	0	0	0	511	443	
9	0	0	0	0	525	418	
10	0	0	0	0	534	440	
11	0	0	0	0	524	507	
12	0	0	0	0	524	533	
13	0	0	0	0	522	501	
14	0	0	0	0	506	490	
15	0	0	0	0	507	497	
0	0	0	0	0	504	445	
1	0	0	0	0	507	424	
2	0	0	0	0	523	476	
3	0	0	0	0	525	526	
4	0	0	0	0	513	552	
5	0	0	0	0	510	604	
6	0	0	0	0	512	652	
7	0	0	0	0	509	677	
8	0	0	0	0	486	592	
9	0	0	0	0	470	481	
10	0	0	0	0	470	464	
11	0	0	0	0	482	373	
12	0	0	0	0	530	494	
13	0	0	0	0	562	462	
14	0	0	0	0	546	415	
15	0	0	0	0	504	386	
0	0	0	0	0	513	326	
1	0	0	0	0	540	449	
2	0	0	0	0	547	585	
3	0	0	0	0	531	612	
4	0	0	0	0	517	600	
5	0	0	0	0	500	531	
6	0	0	0	0	492	439	
7	0	0	0	0	502	480	
8	0	0	0	0	515	620	
9	0	0	0	0	517	667	
10	0	0	0	0	504	652	
11	0	0	0	0	478	564	
12	0	0	0	0	451	310	
13	0	0	0	0	508	275	
14	0	0	0	0	547	418	
15	0	0	0	0	554	551	
0	0	0	0	0	535	571	
1	0	0	0	0	515	546	
2	0	0	0	0	504	513	
3	0	0	0	0	511	563	
4	0	0	0	0	519	635	
5	0	0	0	0	511	662	
6	0	0	0	0	485	611	
7	0	0	0	0	466	370	
8	0	0	0	0	484	361	
9	0	0	0	0	506	454	
10	0	0	0	0	535	601	
11	0	0	0	0	524	589	
12	0	0	0	0	491	409	
13	0	0	0	0	523	276	
14	0	0	0	0	573	414	
15	0	0	0	0	564	493	
0	0	0	0	0	524	522	
1	0	0	0	0	503	529	
2	0	0	0	0	500	511	
3	0	0	0	0	502	523	
4	0	0	0	0	510	523	
5	0	0	0	0	506	501	
6	0	0	0	0	510	543	
7	0	0	0	0	509	567	
8	0	0	0	0	504	540	
9	0	0	0	0	504	498	
10	0	0	0	0	505	480	
11	0	0	0	0	503	518	
12	0	0	0	0	502	536	
13	0	0	0	0	501	525	
14	0	0	0	0	509	527	
15	0	0	0	0	508	525	
0	0	0	0	0	509	529	
1	0	0	0	0	512	529	
2	0	0	0	0	513	525	
3	0	0	0	0	511	514	
4	0	0	0	0	508	487	
5	0	0	0	0	513	481	
6	0	0	0	0	517	492	
7	0	0	0	0	517	525	
8	0	0	0	0	523	593	
9	0	0	0	0	512	599	
10	0	0	0	0	494	594	
11	0	0	0	0	460	391	
12	0	0	0	0	494	287	
13	0	0	0	0	551	438	
14	0	0	0	0	552	498	
15	0	0	0	0	537	515	
0	0	0	0	0	521	515	
1	0	0	0	0	519	514	
2	0	0	0	0	512	519	
3	0	0	0	0	507	537	
4	0	0	0	0	501	541	
5	0	0	0	0	495	511	
6	0	0	0	0	495	495	
7	0	0	0	0	504	478	
8	0	0	0	0	503	585	
9	0	0	0	0	511	695	
10	0	0	0	0	514	737	
11	0	0	0	0	453	560	
12	0	0	0	0	445	287	
13	0	0	0	0	525	72	
14	0	0	0	0	594	218	
15	0	0	0	0	595	531	
0	0	0	0	0	540	592	
1	0	0	0	0	500	556	
2	0	0	0	0	495	548	
3	0	0	0	0	511	565	
4	0	0	0	0	514	566	
5	0	0	0	0	503	521	
6	0	0	0	0	499	500	
7	0	0	0	0	512	538	
8	0	0	0	0	532	624	
9	0	0	0	0	528	628	
10	0	0	0	0	504	533	
11	0	0	0	0	480	422	
12	0	0	0	0	477	321	
13	0	0	0	0	502	469	
14	0	0	0	0	519	648	
15	0	0	0	0	517	680	
0	0	0	0	0	504	600	
1	0	0	0	0	474	497	
2	0	0	0	0	516	351	
3	0	0	0	0	563	403	
4	0	0	0	0	570	512	
5	0	0	0	0	532	536	
6	0	0	0	0	496	433	
7	0	0	0	0	500	441	
8	0	0	0	0	517	482	
9	0	0	0	0	517	569	
10	0	0	0	0	498	497	
11	0	0	0	0	481	435	
12	0	0	0	0	500	476	
13	0	0	0	0	527	612	
14	0	0	0	0	517	588	
15	0	0	0	0	490	536	
0	0	0	0	0	482	428	
1	0	0	0	0	513	386	
2	0	0	0	0	539	483	
3	0	0	0	0	536	573	
4	0	0	0	0	519	609	
5	0	0	0	0	498	625	
6	0	0	0	0	478	557	
7	0	0	0	0	486	501	
8	0	0	0	0	519	541	
9	0	0	0	0	532	531	
10	0	0	0	0	519	514	
11	0	0	0	0	505	334	
12	0	0	0	0	512	313	
13	0	0	0	0	539	482	
14	0	0	0	0	546	620	
15	0	0	0	0	523	637	
0	0	0	0	0	490	586	
1	0	0	0	0	475	424	
2	0	0	0	0	505	343	
3	0	0	0	0	541	333	
4	0	0	0	0	540	489	
5	0	0	0	0	519	522	
6	0	0	0	0	503	532	
7	0	0	0	0	508	536	
8	0	0	0	0	515	562	
9	0	0	0	0	510	563	
10	0	0	0	0	507	555	
11	0	0	0	0	499	553	
12	0	0	0	0	499	544	
13	0	0	0	0	499	526	
14	0	0	0	0	500	485	
15	0	0	0	0	507	482	
0	0	0	0	0	520	520	
1	0	0	0	0	521	527	
2	0	0	0	0	519	507	
3	0	0	0	0	516	513	
4	0	0	0	0	512	521	
5	0	0	0	0	508	512	
6	0	0	0	0	509	512	
7	0	0	0	0	511	510	
8	0	0	0	0	513	519	
9	0	0	0	0	513	536	
10	0	0	0	0	511	521	
11	0	0	0	0	507	496	
12	0	0	0	0	510	496	
13	0	0	0	0	514	470	
14	0	0	0	0	510	487	
15	0	0	0	0	508	496	
0	0	0	0	0	509	487	
1	0	0	0	0	511	494	
2	0	0	0	0	509	495	
3	0	0	0	0	509	511	
4	0	0	0	0	512	510	
5	0	0	0	0	517	510	
6	0	0	0	0	517	509	
7	0	0	0	0	512	512	
8	0	0	0	0	508	512	
9	0	0	0	0	512	523	
10	0	0	0	0	520	528	
11	0	0	0	0	519	516	
12	0	0	0	0	510	511	
13	0	0	0	0	505	507	
14	0	0	0	0	515	540	
15	0	0	0	0	512	583	
0	0	0	0	0	498	596	
1	0	0	0	0	487	545	
2	0	0	0	0	482	361	
3	0	0	0	0	515	490	
4	0	0	0	0	518	535	
5	0	0	0	0	515	396	
6	0	0	0	0	534	408	
7	0	0	0	0	535	470	
8	0	0	0	0	535	531	
9	0	0	0	0	511	435	
10	0	0	0	0	505	504	
11	0	0	0	0	504	489	
12	0	0	0	0	502	463	
13	0	0	0	0	516	519	
14	0	0	0	0	524	547	
15	0	0	0	0	504	511	
0	0	0	0	0	504	495	
1	0	0	0	0	508	556	
2	0	0	0	0	505	600	
3	0	0	0	0	502	599	
4	0	0	0	0	525	569	
5	0	0	0	0	529	567	
6	0	0	0	0	515	564	
7	0	0	0	0	487	481	
8	0	0	0	0	486	456	
9	0	0	0	0	543	610	
10	0	0	0	0	527	676	
11	0	0	0	0	451	349	
12	0	0	0	0	484	84	
13	0	0	0	0	567	319	
14	0	0	0	0	580	531	
15	0	0	0	0	539	522	
0	0	0	0	0	519	498	
1	0	0	0	0	519	575	
2	0	0	0	0	501	627	
3	0	0	0	0	495	572	
4	0	0	0	0	496	592	
5	0	0	0	0	505	627	
6	0	0	0	0	498	630	
7	0	0	0	0	486	490	
8	0	0	0	0	488	309	
9	0	0	0	0	509	297	
10	0	0	0	0	527	400	
11	0	0	0	0	533	504	
12	0	0	0	0	528	568	
13	0	0	0	0	516	584	
14	0	0	0	0	513	604	
15	0	0	0	0	497	562	
0	0	0	0	0	488	546	
1	0	0	0	0	516	525	
2	0	0	0	0	513	583	
3	0	0	0	0	509	591	
4	0	0	0	0	501	401	
5	0	0	0	0	523	281	
6	0	0	0	0	532	417	
7	0	0	0	0	534	550	
8	0	0	0	0	514	551	
9	0	0	0	0	500	532	
10	0	0	0	0	491	547	
11	0	0	0	0	502	557	
12	0	0	0	0	517	582	
13	0	0	0	0	521	610	
14	0	0	0	0	507	625	
15	0	0	0	0	503	619	
0	0	0	0	0	482	568	
1	0	0	0	0	483	458	
2	0	0	0	0	481	144	
3	0	0	0	0	525	157	
4	0	0	0	0	568	397	
5	0	0	0	0	566	535	
6	0	0	0	0	531	565	
7	0	0	0	0	516	541	
8	0	0	0	0	510	521	
9	0	0	0	0	507	546	
10	0	0	0	0	503	559	
11	0	0	0	0	504	566	
12	0	0	0	0	506	558	
13	0	0	0	0	510	543	
14	0	0	0	0	507	545	
15	0	0	0	0	496	548	
0	0	0	0	0	494	534	
1	0	0	0	0	506	560	
2	0	0	0	0	513	568	
3	0	0	0	0	505	552	
4	0	0	0	0	508	506	
5	0	0	0	0	495	416	
6	0	0	0	0	494	415	
7	0	0	0	0	515	384	
8	0	0	0	0	536	531	
9	0	0	0	0	523	551	
10	0	0	0	0	501	496	
11	0	0	0	0	492	397	
12	0	0	0	0	530	401	
13	0	0	0	0	545	501	
14	0	0	0	0	528	543	
15	0	0	0	0	516	541	
0	0	0	0	0	510	553	
1	0	0	0	0	511	557	
2	0	0	0	0	505	558	
3	0	0	0	0	510	519	
4	0	0	0	0	510	497	
5	0	0	0	0	515	515	
6	0	0	0	0	513	526	
7	0	0	0	0	510	517	
8	0	0	0	0	507	529	
9	0	0	0	0	506	538	
10	0	0	0	0	507	578	
11	0	0	0	0	504	587	
12	0	0	0	0	504	544	
13	0	0	0	0	511	450	
14	0	0	0	0	500	354	
15	0	0	0	0	512	408	
0	0	0	0	0	536	492	
1	0	0	0	0	531	496	
2	0	0	0	0	520	536	
3	0	0	0	0	514	547	
4	0	0	0	0	505	489	
5	0	0	0	0	507	461	
6	0	0	0	0	504	493	
7	0	0	0	0	508	515	
8	0	0	0	0	524	585	
9	0	0	0	0	526	635	
10	0	0	0	0	516	637	
11	0	0	0	0	489	517	
12	0	0	0	0	485	377	
13	0	0	0	0	504	444	
14	0	0	0	0	519	639	
15	0	0	0	0	498	607	
0	0	0	0	0	500	385	
1	0	0	0	0	550	384	
2	0	0	0	0	561	550	
3	0	0	0	0	510	355	
4	0	0	0	0	485	164	
5	0	0	0	0	514	340	
6	0	0	0	0	519	511	
7	0	0	0	0	524	633	
8	0	0	0	0	516	700	
9	0	0	0	0	498	634	
10	0	0	0	0	488	538	
11	0	0	0	0	504	523	
12	0	0	0	0	501	519	
13	0	0	0	0	504	554	
14	0	0	0	0	505	559	
15	0	0	0	0	511	504	
0	0	0	0	0	535	385	
1	0	0	0	0	529	424	
2	0	0	0	0	522	564	
3	0	0	0	0	508	542	
4	0	0	0	0	515	480	
5	0	0	0	0	518	524	
6	0	0	0	0	503	495	
7	0	0	0	0	501	535	
8	0	0	0	0	504	563	
9	0	0	0	0	510	557	
10	0	0	0	0	506	436	
11	0	0	0	0	510	440	
12	0	0	0	0	511	501	
13	0	0	0	0	518	529	
14	0	0	0	0	524	616	
15	0	0	0	0	519	652	
0	0	0	0	0	498	543	
1	0	0	0	0	498	412	
2	0	0	0	0	511	398	
3	0	0	0	0	518	494	
4	0	0	0	0	514	579	
5	0	0	0	0	507	479	
6	0	0	0	0	516	445	
7	0	0	0	0	523	419	
8	0	0	0	0	512	478	
9	0	0	0	0	506	558	
10	0	0	0	0	507	567	
11	0	0	0	0	514	504	
12	0	0	0	0	518	485	
13	0	0	0	0	507	501	
14	0	0	0	0	505	496	
15	0	0	0	0	504	521	
0	0	0	0	0	509	582	
1	0	0	0	0	516	588	
2	0	0	0	0	515	501	
3	0	0	0	0	502	424	
4	0	0	0	0	512	412	
5	0	0	0	0	524	550	
6	0	0	0	0	531	659	
7	0	0	0	0	518	681	
8	0	0	0	0	499	549	
9	0	0	0	0	485	244	
10	0	0	0	0	502	299	
11	0	0	0	0	531	494	
12	0	0	0	0	529	575	
13	0	0	0	0	521	515	
14	0	0	0	0	515	510	
15	0	0	0	0	509	591	
0	0	0	0	0	518	599	
1	0	0	0	0	504	485	
2	0	0	0	0	480	414	
3	0	0	0	0	502	433	
4	0	0	0	0	517	415	
5	0	0	0	0	528	463	
6	0	0	0	0	524	533	
7	0	0	0	0	516	539	
8	0	0	0	0	506	547	
9	0	0	0	0	509	546	
10	0	0	0	0	512	542	
11	0	0	0	0	511	533	
12	0	0	0	0	507	521	
13	0	0	0	0	510	532	
14	0	0	0	0	511	533	
15	0	0	0	0	515	529	
0	0	0	0	0	511	524	
1	0	0	0	0	513	529	
2	0	0	0	0	516	529	
3	0	0	0	0	517	517	
4	0	0	0	0	514	513	
5	0	0	0	0	515	503	
6	0	0	0	0	516	485	
7	0	0	0	0	513	499	
8	0	0	0	0	488	465	
9	0	0	0	0	477	456	
10	0	0	0	0	499	484	
11	0	0	0	0	511	476	
12	0	0	0	0	511	484	
13	0	0	0	0	519	504	
14	0	0	0	0	519	512	
15	0	0	0	0	520	515	
0	0	0	0	0	516	522	
1	0	0	0	0	520	535	
2	0	0	0	0	519	549	
3	0	0	0	0	516	557	
4	0	0	0	0	511	541	
5	0	0	0	0	503	504	
6	0	0	0	0	508	453	
7	0	0	0	0	515	453	
8	0	0	0	0	518	444	
9	0	0	0	0	524	494	
10	0	0	0	0	521	518	
11	0	0	0	0	511	528	
12	0	0	0	0	510	524	
13	0	0	0	0	514	524	
14	0	0	0	0	515	528	
15	0	0	0	0	509	485	
0	0	0	0	0	504	479	
1	0	0	0	0	510	531	
2	0	0	0	0	513	573	
3	0	0	0	0	514	654	
4	0	0	0	0	503	670	
5	0	0	0	0	480	411	
6	0	0	0	0	489	253	
7	0	0	0	0	529	376	
8	0	0	0	0	539	447	
9	0	0	0	0	530	549	
10	0	0	0	0	531	647	
11	0	0	0	0	522	668	
12	0	0	0	0	485	679	
13	0	0	0	0	465	445	
14	0	0	0	0	492	211	
15	0	0	0	0	523	245	
0	0	0	0	0	543	448	
1	0	0	0	0	530	536	
2	0	0	0	0	516	558	
3	0	0	0	0	511	550	
4	0	0	0	0	518	561	
5	0	0	0	0	513	588	
6	0	0	0	0	512	578	
7	0	0	0	0	507	525	
8	0	0	0	0	504	525	
9	0	0	0	0	508	499	
10	0	0	0	0	515	492	
11	0	0	0	0	514	514	
12	0	0	0	0	509	513	
13	0	0	0	0	508	528	
14	0	0	0	0	510	531	
15	0	0	0	0	510	528	
0	0	0	0	0	508	506	
1	0	0	0	0	510	566	
2	0	0	0	0	502	613	
3	0	0	0	0	488	555	
4	0	0	0	0	496	445	
5	0	0	0	0	514	344	
6	0	0	0	0	524	304	
7	0	0	0	0	540	484	
8	0	0	0	0	533	569	
9	0	0	0	0	525	582	
10	0	0	0	0	521	566	
11	0	0	0	0	501	499	
12	0	0	0	0	495	459	
13	0	0	0	0	501	514	
14	0	0	0	0	514	484	
15	0	0	0	0	514	486	
0	0	0	0	0	505	537	
1	0	0	0	0	499	521	
2	0	0	0	0	505	526	
3	0	0	0	0	508	526	
4	0	0	0	0	521	537	
5	0	0	0	0	526	511	
6	0	0	0	0	510	461	
7	0	0	0	0	506	469	
8	0	0	0	0	502	484	
9	0	0	0	0	511	506	
10	0	0	0	0	517	543	
11	0	0	0	0	526	544	
12	0	0	0	0	521	553	
13	0	0	0	0	508	509	
14	0	0	0	0	507	487	
15	0	0	0	0	511	511	
0	0	0	0	0	504	461	
1	0	0	0	0	501	491	
2	0	0	0	0	500	502	
3	0	0	0	0	509	537	
4	0	0	0	0	521	594	
5	0	0	0	0	519	567	
6	0	0	0	0	515	469	
7	0	0	0	0	511	388	
8	0	0	0	0	506	432	
9	0	0	0	0	516	502	
10	0	0	0	0	513	551	
11	0	0	0	0	505	542	
12	0	0	0	0	513	526	
13	0	0	0	0	514	495	
14	0	0	0	0	512	507	
15	0	0	0	0	511	520	
0	0	0	0	0	512	504	
1	0	0	0	0	508	476	
2	0	0	0	0	512	502	
3	0	0	0	0	510	502	
4	0	0	0	0	511	527	
5	0	0	0	0	511	518	
6	0	0	0	0	511	511	
7	0	0	0	0	516	514	
8	0	0	0	0	518	523	
9	0	0	0	0	513	527	
10	0	0	0	0	514	524	
11	0	0	0	0	515	518	
12	0	0	0	0	513	506	
13	0	0	0	0	515	482	
14	0	0	0	0	513	508	
15	0	0	0	0	512	519	
0	0	0	0	0	506	506	
1	0	0	0	0	503	491	
2	0	0	0	0	504	484	
3	0	0	0	0	514	513	
4	0	0	0	0	516	518	
5	0	0	0	0	514	483	
6	0	0	0	0	512	494	
7	0	0	0	0	510	493	
8	0	0	0	0	512	504	
9	0	0	0	0	514	509	
10	0	0	0	0	516	525	
11	0	0	0	0	513	534	
12	0	0	0	0	514	527	
13	0	0	0	0	513	518	
14	0	0	0	0	514	514	
15	0	0	0	0	510	497	
0	0	0	0	0	513	514	
1	0	0	0	0	510	480	
2	0	0	0	0	505	526	
3	0	0	0	0	507	532	
4	0	0	0	0	509	581	
5	0	0	0	0	506	575	
6	0	0	0	0	499	467	
7	0	0	0	0	488	407	
8	0	0	0	0	509	383	
9	0	0	0	0	503	403	
10	0	0	0	0	528	566	
11	0	0	0	0	549	684	
12	0	0	0	0	529	672	
13	0	0	0	0	507	488	
14	0	0	0	0	509	245	
15	0	0	0	0	516	283	
0	0	0	0	0	517	401	
1	0	0	0	0	519	545	
2	0	0	0	0	509	571	
3	0	0	0	0	502	560	
4	0	0	0	0	508	550	
5	0	0	0	0	510	550	
6	0	0	0	0	512	561	
7	0	0	0	0	512	561	
8	0	0	0	0	508	550	
9	0	0	0	0	506	525	
10	0	0	0	0	508	516	
11	0	0	0	0	512	524	
12	0	0	0	0	510	514	
13	0	0	0	0	509	497	
14	0	0	0	0	510	520	
15	0	0	0	0	515	547	
0	0	0	0	0	523	545	
1	0	0	0	0	523	511	
2	0	0	0	0	506	465	
3	0	0	0	0	507	477	
4	0	0	0	0	508	485	
5	0	0	0	0	511	482	
6	0	0	0	0	504	486	
7	0	0	0	0	510	497	
8	0	0	0	0	512	504	
9	0	0	0	0	511	507	
10	0	0	0	0	512	505	
11	0	0	0	0	511	511	
12	0	0	0	0	510	510	
13	0	0	0	0	514	516	
14	0	0	0	0	514	519	
15	0	0	0	0	518	513	
0	0	0	0	0	514	492	
1	0	0	0	0	511	494	
2	0	0	0	0	510	504	
3	0	0	0	0	515	516	
4	0	0	0	0	515	524	
5	0	0	0	0	514	529	
6	0	0	0	0	512	511	
7	0	0	0	0	515	527	
8	0	0	0	0	523	577	
9	0	0	0	0	526	634	
10	0	0	0	0	500	595	
11	0	0	0	0	479	408	
12	0	0	0	0	488	343	
13	0	0	0	0	519	370	
14	0	0	0	0	524	454	
15	0	0	0	0	507	403	
0	0	0	0	0	507	489	
1	0	0	0	0	519	542	
2	0	0	0	0	515	525	
3	0	0	0	0	515	541	
4	0	0	0	0	515	549	
5	0	0	0	0	513	548	
6	0	0	0	0	508	540	
7	0	0	0	0	509	509	
8	0	0	0	0	511	490	
9	0	0	0	0	515	530	
10	0	0	0	0	515	530	
11	0	0	0	0	511	520	
12	0	0	0	0	511	515	
13	0	0	0	0	512	517	
14	0	0	0	0	512	525	
15	0	0	0	0	518	568	
0	0	0	0	0	515	595	
1	0	0	0	0	513	600	
2	0	0	0	0	496	527	
3	0	0	0	0	482	384	
4	0	0	0	0	506	358	
5	0	0	0	0	524	423	
6	0	0	0	0	530	455	
7	0	0	0	0	522	479	
8	0	0	0	0	520	524	
9	0	0	0	0	517	526	
10	0	0	0	0	510	521	
11	0	0	0	0	512	533	
12	0	0	0	0	513	540	
13	0	0	0	0	510	508	
14	0	0	0	0	506	493	
15	0	0	0	0	510	499	
0	0	0	0	0	508	498	
1	0	0	0	0	506	510	
2	0	0	0	0	509	521	
3	0	0	0	0	511	519	
4	0	0	0	0	510	515	
5	0	0	0	0	512	518	
6	0	0	0	0	514	522	
7	0	0	0	0	515	551	
8	0	0	0	0	516	571	
9	0	0	0	0	521	600	
10	0	0	0	0	520	618	
11	0	0	0	0	491	406	
12	0	0	0	0	482	358	
13	0	0	0	0	486	369	
14	0	0	0	0	505	439	
15	0	0	0	0	523	518	
0	0	0	0	0	515	541	
1	0	0	0	0	521	513	
2	0	0	0	0	529	513	
3	0	0	0	0	526	532	
4	0	0	0	0	518	531	
5	0	0	0	0	514	523	
6	0	0	0	0	512	516	
7	0	0	0	0	508	513	
8	0	0	0	0	511	504	
9	0	0	0	0	514	504	
10	0	0	0	0	512	524	
11	0	0	0	0	512	547	
12	0	0	0	0	514	585	
13	0	0	0	0	511	594	
14	0	0	0	0	504	596	
15	0	0	0	0	502	529	
0	0	0	0	0	493	517	
1	0	0	0	0	490	450	
2	0	0	0	0	499	326	
3	0	0	0	0	519	232	
4	0	0	0	0	541	362	
5	0	0	0	0	545	542	
6	0	0	0	0	537	630	
7	0	0	0	0	523	615	
8	0	0	0	0	505	502	
9	0	0	0	0	505	495	
10	0	0	0	0	504	465	
11	0	0	0	0	495	416	
12	0	0	0	0	502	463	
13	0	0	0	0	511	532	
14	0	0	0	0	508	561	
15	0	0	0	0	502	534	
0	0	0	0	0	499	520	
1	0	0	0	0	511	538	
2	0	0	0	0	517	545	
3	0	0	0	0	519	531	
4	0	0	0	0	515	525	
5	0	0	0	0	514	527	
6	0	0	0	0	516	531	
7	0	0	0	0	514	525	
8	0	0	0	0	515	526	
9	0	0	0	0	514	533	
10	0	0	0	0	511	530	
11	0	0	0	0	509	495	
12	0	0	0	0	510	479	
13	0	0	0	0	508	490	
14	0	0	0	0	514	536	
15	0	0	0	0	520	617	
0	0	0	0	0	525	611	
1	0	0	0	0	512	482	
2	0	0	0	0	478	290	
3	0	0	0	0	499	390	
4	0	0	0	0	515	479	
5	0	0	0	0	515	508	
6	0	0	0	0	512	514	
7	0	0	0	0	510	519	
8	0	0	0	0	510	523	
9	0	0	0	0	510	519	
10	0	0	0	0	514	519	
11	0	0	0	0	517	521	
12	0	0	0	0	517	518	
13	0	0	0	0	513	514	
14	0	0	0	0	513	512	
15	0	0	0	0	515	515	
0	0	0	0	0	514	512	
1	0	0	0	0	516	509	
2	0	0	0	0	516	583	
3	0	0	0	0	523	726	
4	0	0	0	0	521	810	
5	0	0	0	0	481	654	
6	0	0	0	0	443	243	
7	0	0	0	0	472	0	
8	0	0	0	0	563	260	
9	0	0	0	0	576	557	
10	0	0	0	0	536	597	
11	0	0	0	0	512	472	
12	0	0	0	0	502	436	
13	0	0	0	0	514	497	
14	0	0	0	0	522	513	
15	0	0	0	0	515	508	
0	0	0	0	0	511	539	
1	0	0	0	0	509	553	
2	0	0	0	0	504	539	
3	0	0	0	0	510	544	
4	0	0	0	0	506	546	
5	0	0	0	0	510	544	
6	0	0	0	0	511	531	
7	0	0	0	0	506	525	
8	0	0	0	0	510	525	
9	0	0	0	0	511	522	
10	0	0	0	0	511	517	
11	0	0	0	0	517	556	
12	0	0	0	0	519	622	
13	0	0	0	0	521	706	
14	0	0	0	0	512	733	
15	0	0	0	0	489	608	
0	0	0	0	0	454	332	
1	0	0	0	0	461	180	
2	0	0	0	0	532	244	
3	0	0	0	0	566	312	
4	0	0	0	0	549	404	
5	0	0	0	0	524	444	
6	0	0	0	0	525	549	
7	0	0	0	0	507	545	
8	0	0	0	0	502	506	
9	0	0	0	0	510	539	
10	0	0	0	0	507	540	
11	0	0	0	0	506	558	
12	0	0	0	0	506	558	
13	0	0	0	0	512	552	
14	0	0	0	0	510	545	
15	0	0	0	0	510	539	
0	0	0	0	0	509	531	
1	0	0	0	0	511	527	
2	0	0	0	0	510	522	
3	0	0	0	0	512	526	
4	0	0	0	0	514	525	
5	0	0	0	0	518	536	
6	0	0	0	0	518	557	
7	0	0	0	0	517	548	
8	0	0	0	0	513	569	
9	0	0	0	0	483	598	
10	0	0	0	0	483	564	
11	0	0	0	0	514	472	
12	0	0	0	0	518	407	
13	0	0	0	0	517	411	
14	0	0	0	0	514	353	
15	0	0	0	0	522	373	
0	0	0	0	0	533	459	
1	0	0	0	0	526	480	
2	0	0	0	0	516	495	
3	0	0	0	0	508	517	
4	0	0	0	0	513	527	
5	0	0	0	0	515	536	
6	0	0	0	0	514	542	
7	0	0	0	0	511	538	
8	0	0	0	0	510	537	
9	0	0	0	0	511	535	
10	0	0	0	0	511	528	
11	0	0	0	0	510	528	
12	0	0	0	0	509	524	
13	0	0	0	0	511	524	
14	0	0	0	0	513	536	
15	0	0	0	0	518	559	
0	0	0	0	0	525	585	
1	0	0	0	0	530	658	
2	0	0	0	0	522	679	
3	0	0	0	0	495	595	
4	0	0	0	0	463	506	
5	0	0	0	0	420	211	
6	0	0	0	0	481	163	
7	0	0	0	0	561	276	
8	0	0	0	0	563	423	
9	0	0	0	0	541	490	
10	0	0	0	0	523	532	
11	0	0	0	0	521	559	
12	0	0	0	0	517	532	
13	0	0	0	0	516	517	
14	0	0	0	0	515	543	
15	0	0	0	0	513	557	
0	0	0	0	0	512	551	
1	0	0	0	0	505	543	
2	0	0	0	0	503	539	
3	0	0	0	0	503	532	
4	0	0	0	0	507	529	
5	0	0	0	0	510	526	
6	0	0	0	0	509	519	
7	0	0	0	0	513	525	
8	0	0	0	0	518	550	
9	0	0	0	0	520	579	
10	0	0	0	0	517	582	
11	0	0	0	0	503	597	
12	0	0	0	0	472	594	
13	0	0	0	0	492	575	
14	0	0	0	0	527	605	
15	0	0	0	0	514	540	
0	0	0	0	0	495	333	
1	0	0	0	0	485	81	
2	0	0	0	0	512	124	
3	0	0	0	0	559	345	
4	0	0	0	0	555	512	
5	0	0	0	0	536	593	
6	0	0	0	0	519	588	
7	0	0	0	0	509	562	
8	0	0	0	0	507	552	
9	0	0	0	0	507	565	
10	0	0	0	0	506	562	
11	0	0	0	0	504	552	
12	0	0	0	0	505	548	
13	0	0	0	0	507	540	
14	0	0	0	0	505	539	
15	0	0	0	0	505	536	
0	0	0	0	0	508	529	
1	0	0	0	0	510	526	
2	0	0	0	0	511	526	
3	0	0	0	0	513	532	
4	0	0	0	0	518	563	
5	0	0	0	0	521	587	
6	0	0	0	0	517	561	
7	0	0	0	0	516	560	
8	0	0	0	0	502	478	
9	0	0	0	0	495	452	
10	0	0	0	0	488	447	
11	0	0	0	0	490	385	
12	0	0	0	0	527	363	
13	0	0	0	0	540	448	
14	0	0	0	0	531	561	
15	0	0	0	0	508	543	
0	0	0	0	0	503	526	
1	0	0	0	0	511	466	
2	0	0	0	0	510	409	
3	0	0	0	0	515	474	
4	0	0	0	0	515	538	
5	0	0	0	0	510	545	
6	0	0	0	0	508	526	
7	0	0	0	0	505	514	
8	0	0	0	0	507	524	
9	0	0	0	0	510	532	
10	0	0	0	0	513	533	
11	0	0	0	0	511	533	
12	0	0	0	0	512	530	
13	0	0	0	0	513	520	
14	0	0	0	0	515	507	
15	0	0	0	0	520	544	
0	0	0	0	0	530	686	
1	0	0	0	0	532	766	
2	0	0	0	0	518	774	
3	0	0	0	0	460	538	
4	0	0	0	0	402	131	
5	0	0	0	0	465	74	
6	0	0	0	0	565	307	
7	0	0	0	0	584	488	
8	0	0	0	0	548	491	
9	0	0	0	0	518	378	
10	0	0	0	0	515	422	
11	0	0	0	0	517	499	
12	0	0	0	0	517	538	
13	0	0	0	0	520	573	
14	0	0	0	0	515	593	
15	0	0	0	0	511	600	
0	0	0	0	0	507	582	
1	0	0	0	0	504	543	
2	0	0	0	0	499	508	
3	0	0	0	0	504	508	
4	0	0	0	0	508	530	
5	0	0	0	0	507	540	
6	0	0	0	0	509	544	
7	0	0	0	0	512	564	
8	0	0	0	0	514	620	
9	0	0	0	0	520	678	
10	0	0	0	0	517	745	
11	0	0	0	0	497	698	
12	0	0	0	0	470	498	
13	0	0	0	0	487	229	
14	0	0	0	0	507	60	
15	0	0	0	0	531	150	
0	0	0	0	0	547	390	
1	0	0	0	0	540	587	
2	0	0	0	0	522	506	
3	0	0	0	0	522	467	
4	0	0	0	0	525	516	
5	0	0	0	0	518	566	
6	0	0	0	0	511	575	
7	0	0	0	0	500	558	
8	0	0	0	0	500	536	
9	0	0	0	0	503	537	
10	0	0	0	0	507	548	
11	0	0	0	0	504	551	
12	0	0	0	0	504	535	
13	0	0	0	0	507	525	
14	0	0	0	0	509	524	
15	0	0	0	0	507	523	
0	0	0	0	0	511	532	
1	0	0	0	0	514	582	
2	0	0	0	0	515	636	
3	0	0	0	0	513	662	
4	0	0	0	0	503	635	
5	0	0	0	0	476	556	
6	0	0	0	0	487	369	
7	0	0	0	0	532	325	
8	0	0	0	0	555	470	
9	0	0	0	0	538	462	
10	0	0	0	0	510	345	
11	0	0	0	0	505	284	
12	0	0	0	0	533	404	
13	0	0	0	0	535	477	
14	0	0	0	0	510	483	
15	0	0	0	0	498	507	
0	0	0	0	0	496	537	
1	0	0	0	0	506	594	
2	0	0	0	0	507	580	
3	0	0	0	0	509	545	
4	0	0	0	0	510	535	
5	0	0	0	0	508	516	
6	0	0	0	0	505	498	
7	0	0	0	0	508	499	
8	0	0	0	0	513	535	
9	0	0	0	0	517	546	
10	0	0	0	0	516	538	
11	0	0	0	0	508	568	
12	0	0	0	0	504	698	
13	0	0	0	0	516	677	
14	0	0	0	0	514	622	
15	0	0	0	0	471	547	
0	0	0	0	0	439	348	
1	0	0	0	0	523	350	
2	0	0	0	0	593	421	
3	0	0	0	0	569	502	
4	0	0	0	0	527	430	
5	0	0	0	0	516	331	
6	0	0	0	0	515	376	
7	0	0	0	0	526	492	
8	0	0	0	0	518	520	
9	0	0	0	0	496	464	
10	0	0	0	0	486	492	
11	0	0	0	0	501	521	
12	0	0	0	0	509	551	
13	0	0	0	0	506	553	
14	0	0	0	0	507	566	
15	0	0	0	0	509	525	
0	0	0	0	0	510	528	
1	0	0	0	0	510	524	
2	0	0	0	0	509	502	
3	0	0	0	0	512	535	
4	0	0	0	0	517	597	
5	0	0	0	0	515	614	
6	0	0	0	0	514	664	
7	0	0	0	0	509	693	
8	0	0	0	0	494	620	
9	0	0	0	0	478	547	
10	0	0	0	0	466	443	
11	0	0	0	0	495	248	
12	0	0	0	0	522	157	
13	0	0	0	0	546	231	
14	0	0	0	0	547	327	
15	0	0	0	0	554	463	
0	0	0	0	0	542	550	
1	0	0	0	0	521	588	
2	0	0	0	0	511	591	
3	0	0	0	0	508	588	
4	0	0	0	0	508	577	
5	0	0	0	0	508	587	
6	0	0	0	0	507	564	
7	0	0	0	0	497	507	
8	0	0	0	0	499	477	
9	0	0	0	0	504	502	
10	0	0	0	0	508	528	
11	0	0	0	0	507	539	
12	0	0	0	0	509	535	
13	0	0	0	0	508	534	
14	0	0	0	0	508	522	
15	0	0	0	0	511	543	
0	0	0	0	0	506	555	
1	0	0	0	0	516	564	
2	0	0	0	0	519	624	
3	0	0	0	0	512	674	
4	0	0	0	0	499	680	
5	0	0	0	0	511	583	
6	0	0	0	0	488	373	
7	0	0	0	0	480	176	
8	0	0	0	0	511	145	
9	0	0	0	0	541	211	
10	0	0	0	0	543	399	
11	0	0	0	0	546	524	
12	0	0	0	0	531	583	
13	0	0	0	0	521	582	
14	0	0	0	0	515	565	
15	0	0	0	0	505	555	
0	0	0	0	0	501	548	
1	0	0	0	0	500	551	
2	0	0	0	0	505	550	
3	0	0	0	0	508	545	
4	0	0	0	0	505	537	
5	0	0	0	0	509	534	
6	0	0	0	0	512	553	
7	0	0	0	0	516	562	
8	0	0	0	0	518	593	
9	0	0	0	0	517	663	
10	0	0	0	0	507	703	
11	0	0	0	0	497	630	
12	0	0	0	0	485	517	
13	0	0	0	0	455	315	
14	0	0	0	0	466	155	
15	0	0	0	0	532	197	
0	0	0	0	0	568	369	
1	0	0	0	0	574	526	
2	0	0	0	0	553	597	
3	0	0	0	0	525	587	
4	0	0	0	0	503	519	
5	0	0	0	0	502	489	
6	0	0	0	0	514	492	
7	0	0	0	0	513	508	
8	0	0	0	0	504	522	
9	0	0	0	0	495	514	
10	0	0	0	0	497	523	
11	0	0	0	0	501	539	
12	0	0	0	0	502	541	
13	0	0	0	0	503	526	
14	0	0	0	0	509	528	
15	0	0	0	0	509	528	
0	0	0	0	0	513	515	
1	0	0	0	0	516	519	
2	0	0	0	0	513	543	
3	0	0	0	0	517	581	
4	0	0	0	0	524	687	
5	0	0	0	0	524	761	
6	0	0	0	0	503	716	
7	0	0	0	0	479	600	
8	0	0	0	0	448	395	
9	0	0	0	0	464	121	
10	0	0	0	0	524	0	
11	0	0	0	0	583	251	
12	0	0	0	0	570	463	
13	0	0	0	0	531	499	
14	0	0	0	0	512	543	
15	0	0	0	0	518	531	
0	0	0	0	0	524	546	
1	0	0	0	0	527	571	
2	0	0	0	0	519	592	
3	0	0	0	0	501	553	
4	0	0	0	0	495	520	
5	0	0	0	0	494	497	
6	0	0	0	0	506	548	
7	0	0	0	0	510	567	
8	0	0	0	0	506	552	
9	0	0	0	0	506	541	
10	0	0	0	0	507	539	
11	0	0	0	0	507	533	
12	0	0	0	0	506	536	
13	0	0	0	0	509	556	
14	0	0	0	0	509	594	
15	0	0	0	0	512	667	
0	0	0	0	0	502	698	
1	0	0	0	0	492	637	
2	0	0	0	0	485	574	
3	0	0	0	0	476	312	
4	0	0	0	0	500	206	
5	0	0	0	0	548	284	
6	0	0	0	0	567	325	
7	0	0	0	0	568	415	
8	0	0	0	0	542	433	
9	0	0	0	0	515	465	
10	0	0	0	0	503	541	
11	0	0	0	0	485	563	
12	0	0	0	0	486	508	
13	0	0	0	0	500	463	
14	0	0	0	0	509	507	
15	0	0	0	0	514	545	
0	0	0	0	0	520	523	
1	0	0	0	0	512	527	
2	0	0	0	0	510	558	
3	0	0	0	0	508	559	
4	0	0	0	0	504	555	
5	0	0	0	0	505	545	
6	0	0	0	0	511	540	
7	0	0	0	0	514	577	
8	0	0	0	0	515	621	
9	0	0	0	0	514	646	
10	0	0	0	0	502	641	
11	0	0	0	0	483	623	
12	0	0	0	0	467	503	
13	0	0	0	0	489	253	
14	0	0	0	0	536	348	
15	0	0	0	0	555	533	
0	0	0	0	0	563	566	
1	0	0	0	0	541	535	
2	0	0	0	0	500	338	
3	0	0	0	0	476	268	
4	0	0	0	0	475	279	
5	0	0	0	0	505	438	
6	0	0	0	0	528	588	
7	0	0	0	0	530	597	
8	0	0	0	0	523	570	
9	0	0	0	0	517	530	
10	0	0	0	0	515	541	
11	0	0	0	0	514	557	
12	0	0	0	0	508	546	
13	0	0	0	0	505	528	
14	0	0	0	0	509	526	
15	0	0	0	0	510	553	
0	0	0	0	0	515	607	
1	0	0	0	0	512	621	
2	0	0	0	0	511	640	
3	0	0	0	0	501	612	
4	0	0	0	0	479	508	
5	0	0	0	0	476	444	
6	0	0	0	0	487	473	
7	0	0	0	0	512	499	
8	0	0	0	0	523	479	
9	0	0	0	0	524	348	
10	0	0	0	0	538	255	
11	0	0	0	0	548	325	
12	0	0	0	0	540	420	
13	0	0	0	0	534	466	
14	0	0	0	0	522	498	
15	0	0	0	0	519	466	
0	0	0	0	0	520	517	
1	0	0	0	0	519	582	
2	0	0	0	0	515	628	
3	0	0	0	0	504	594	
4	0	0	0	0	507	548	
5	0	0	0	0	511	554	
6	0	0	0	0	506	536	
7	0	0	0	0	495	524	
8	0	0	0	0	490	484	
9	0	0	0	0	498	519	
10	0	0	0	0	505	532	
11	0	0	0	0	511	551	
12	0	0	0	0	509	608	
13	0	0	0	0	511	690	
14	0	0	0	0	506	690	
15	0	0	0	0	494	673	
0	0	0	0	0	463	538	
1	0	0	0	0	455	347	
2	0	0	0	0	487	174	
3	0	0	0	0	543	219	
4	0	0	0	0	568	423	
5	0	0	0	0	543	586	
6	0	0	0	0	539	512	
7	0	0	0	0	535	469	
8	0	0	0	0	525	491	
9	0	0	0	0	515	527	
10	0	0	0	0	512	527	
11	0	0	0	0	518	401	
12	0	0	0	0	522	392	
13	0	0	0	0	526	461	
14	0	0	0	0	517	548	
15	0	0	0	0	493	545	
0	0	0	0	0	492	494	
1	0	0	0	0	503	505	
2	0	0	0	0	515	551	
3	0	0	0	0	513	580	
4	0	0	0	0	507	584	
5	0	0	0	0	506	581	
6	0	0	0	0	508	612	
7	0	0	0	0	513	664	
8	0	0	0	0	514	716	
9	0	0	0	0	508	655	
10	0	0	0	0	483	550	
11	0	0	0	0	439	484	
12	0	0	0	0	408	344	
13	0	0	0	0	473	373	
14	0	0	0	0	573	373	
15	0	0	0	0	603	455	
0	0	0	0	0	579	443	
1	0	0	0	0	540	299	
2	0	0	0	0	531	237	
3	0	0	0	0	524	330	
4	0	0	0	0	532	456	
5	0	0	0	0	530	562	
6	0	0	0	0	519	585	
7	0	0	0	0	507	584	
8	0	0	0	0	499	579	
9	0	0	0	0	495	595	
10	0	0	0	0	497	593	
11	0	0	0	0	500	583	
12	0	0	0	0	500	574	
13	0	0	0	0	503	560	
14	0	0	0	0	505	547	
15	0	0	0	0	504	534	
0	0	0	0	0	507	537	
1	0	0	0	0	512	563	
2	0	0	0	0	516	639	
3	0	0	0	0	519	728	
4	0	0	0	0	516	762	
5	0	0	0	0	507	726	
6	0	0	0	0	486	522	
7	0	0	0	0	431	187	
8	0	0	0	0	457	119	
9	0	0	0	0	514	273	
10	0	0	0	0	549	426	
11	0	0	0	0	535	426	
12	0	0	0	0	531	411	
13	0	0	0	0	551	290	
14	0	0	0	0	577	369	
15	0	0	0	0	572	531	
0	0	0	0	0	543	587	
1	0	0	0	0	512	575	
2	0	0	0	0	500	542	
3	0	0	0	0	487	516	
4	0	0	0	0	487	523	
5	0	0	0	0	489	548	
6	0	0	0	0	497	559	
7	0	0	0	0	498	565	
8	0	0	0	0	498	575	
9	0	0	0	0	503	563	
10	0	0	0	0	508	571	
11	0	0	0	0	517	607	
12	0	0	0	0	521	624	
13	0	0	0	0	522	612	
14	0	0	0	0	516	611	
15	0	0	0	0	496	597	
0	0	0	0	0	476	510	
1	0	0	0	0	485	344	
2	0	0	0	0	491	286	
3	0	0	0	0	492	302	
4	0	0	0	0	511	343	
5	0	0	0	0	522	372	
6	0	0	0	0	540	480	
7	0	0	0	0	555	576	
8	0	0	0	0	548	591	
9	0	0	0	0	527	564	
10	0	0	0	0	516	562	
11	0	0	0	0	513	530	
12	0	0	0	0	508	490	
13	0	0	0	0	511	513	
14	0	0	0	0	516	544	
15	0	0	0	0	511	551	
0	0	0	0	0	510	543	
1	0	0	0	0	509	534	
2	0	0	0	0	513	569	
3	0	0	0	0	514	614	
4	0	0	0	0	513	609	
5	0	0	0	0	505	635	
6	0	0	0	0	481	595	
7	0	0	0	0	448	523	
8	0	0	0	0	466	476	
9	0	0	0	0	498	441	
10	0	0	0	0	504	406	
11	0	0	0	0	519	304	
12	0	0	0	0	542	374	
13	0	0	0	0	558	493	
14	0	0	0	0	547	475	
15	0	0	0	0	539	399	
0	0	0	0	0	547	432	
1	0	0	0	0	537	483	
2	0	0	0	0	514	465	
3	0	0	0	0	500	456	
4	0	0	0	0	505	451	
5	0	0	0	0	503	510	
6	0	0	0	0	510	565	
7	0	0	0	0	518	561	
8	0	0	0	0	508	529	
9	0	0	0	0	498	543	
10	0	0	0	0	500	575	
11	0	0	0	0	501	580	
12	0	0	0	0	499	597	
13	0	0	0	0	506	641	
14	0	0	0	0	504	679	
15	0	0	0	0	505	750	
0	0	0	0	0	493	754	
1	0	0	0	0	478	614	
2	0	0	0	0	464	328	
3	0	0	0	0	469	114	
4	0	0	0	0	472	170	
5	0	0	0	0	512	161	
6	0	0	0	0	588	294	
7	0	0	0	0	612	557	
8	0	0	0	0	592	706	
9	0	0	0	0	546	671	
10	0	0	0	0	512	543	
11	0	0	0	0	503	543	
12	0	0	0	0	500	510	
13	0	0	0	0	504	460	
14	0	0	0	0	503	527	
15	0	0	0	0	488	478	
0	0	0	0	0	487	457	
1	0	0	0	0	504	462	
2	0	0	0	0	520	510	
3	0	0	0	0	524	556	
4	0	0	0	0	518	563	
5	0	0	0	0	512	550	
6	0	0	0	0	509	555	
7	0	0	0	0	511	573	
8	0	0	0	0	513	594	
9	0	0	0	0	515	620	
10	0	0	0	0	511	700	
11	0	0	0	0	500	729	
12	0	0	0	0	488	608	
13	0	0	0	0	469	450	
14	0	0	0	0	441	348	
15	0	0	0	0	433	133	
0	0	0	0	0	483	0	
1	0	0	0	0	565	174	
2	0	0	0	0	613	511	
3	0	0	0	0	602	688	
4	0	0	0	0	550	674	
5	0	0	0	0	516	639	
6	0	0	0	0	504	625	
7	0	0	0	0	502	621	
8	0	0	0	0	497	596	
9	0	0	0	0	500	571	
10	0	0	0	0	498	549	
11	0	0	0	0	496	522	
12	0	0	0	0	512	462	
13	0	0	0	0	519	478	
14	0	0	0	0	521	523	
15	0	0	0	0	513	531	
0	0	0	0	0	511	469	
1	0	0	0	0	519	528	
2	0	0	0	0	507	638	
3	0	0	0	0	513	699	
4	0	0	0	0	522	675	
5	0	0	0	0	490	579	
6	0	0	0	0	444	368	
7	0	0	0	0	419	60	
8	0	0	0	0	481	0	
9	0	0	0	0	569	184	
10	0	0	0	0	609	569	
11	0	0	0	0	598	718	
12	0	0	0	0	553	645	
13	0	0	0	0	506	595	
14	0	0	0	0	497	634	
15	0	0	0	0	501	658	
0	0	0	0	0	494	605	
1	0	0	0	0	480	514	
2	0	0	0	0	478	482	
3	0	0	0	0	487	464	
4	0	0	0	0	504	503	
5	0	0	0	0	507	554	
6	0	0	0	0	508	600	
7	0	0	0	0	512	583	
8	0	0	0	0	515	451	
9	0	0	0	0	523	342	
10	0	0	0	0	543	407	
11	0	0	0	0	547	554	
12	0	0	0	0	530	598	
13	0	0	0	0	529	603	
14	0	0	0	0	522	568	
15	0	0	0	0	503	502	
0	0	0	0	0	489	440	
1	0	0	0	0	486	491	
2	0	0	0	0	489	506	
3	0	0	0	0	487	541	
4	0	0	0	0	485	475	
5	0	0	0	0	491	372	
6	0	0	0	0	513	440	
7	0	0	0	0	540	545	
8	0	0	0	0	531	557	
9	0	0	0	0	508	442	
10	0	0	0	0	514	423	
11	0	0	0	0	525	464	
12	0	0	0	0	529	517	
13	0	0	0	0	528	565	
14	0	0	0	0	516	540	
15	0	0	0	0	507	507	
0	0	0	0	0	509	527	
1	0	0	0	0	509	533	
2	0	0	0	0	509	539	
3	0	0	0	0	505	545	
4	0	0	0	0	506	544	
5	0	0	0	0	508	543	
6	0	0	0	0	506	534	
7	0	0	0	0	506	526	
8	0	0	0	0	508	533	
9	0	0	0	0	510	573	
10	0	0	0	0	511	610	
11	0	0	0	0	508	611	
12	0	0	0	0	501	600	
13	0	0	0	0	476	529	
14	0	0	0	0	466	472	
15	0	0	0	0	498	423	
0	0	0	0	0	542	433	
1	0	0	0	0	562	507	
2	0	0	0	0	560	518	
3	0	0	0	0	527	478	
4	0	0	0	0	502	338	
5	0	0	0	0	506	144	
6	0	0	0	0	508	94	
7	0	0	0	0	519	255	
8	0	0	0	0	548	499	
9	0	0	0	0	554	654	
10	0	0	0	0	540	678	
11	0	0	0	0	520	663	
12	0	0	0	0	504	650	
13	0	0	0	0	499	631	
14	0	0	0	0	501	615	
15	0	0	0	0	497	607	
0	0	0	0	0	489	589	
1	0	0	0	0	481	524	
2	0	0	0	0	477	504	
3	0	0	0	0	477	535	
4	0	0	0	0	487	514	
5	0	0	0	0	494	458	
6	0	0	0	0	502	441	
7	0	0	0	0	516	475	
8	0	0	0	0	527	502	
9	0	0	0	0	532	505	
10	0	0	0	0	528	503	
11	0	0	0	0	523	507	
12	0	0	0	0	518	516	
13	0	0	0	0	518	512	
14	0	0	0	0	521	555	
15	0	0	0	0	523	607	
0	0	0	0	0	524	605	
1	0	0	0	0	521	580	
2	0	0	0	0	510	529	
3	0	0	0	0	481	451	
4	0	0	0	0	469	463	
5	0	0	0	0	490	508	
6	0	0	0	0	547	638	
7	0	0	0	0	566	679	
8	0	0	0	0	513	524	
9	0	0	0	0	467	243	
10	0	0	0	0	470	0	
11	0	0	0	0	541	117	
12	0	0	0	0	582	467	
13	0	0	0	0	575	697	
14	0	0	0	0	534	696	
15	0	0	0	0	482	557	
0	0	0	0	0	475	477	
1	0	0	0	0	502	524	
2	0	0	0	0	520	587	
3	0	0	0	0	516	585	
4	0	0	0	0	500	531	
5	0	0	0	0	489	504	
6	0	0	0	0	486	427	
7	0	0	0	0	492	422	
8	0	0	0	0	507	505	
9	0	0	0	0	513	548	
10	0	0	0	0	522	629	
11	0	0	0	0	520	713	
12	0	0	0	0	517	731	
13	0	0	0	0	507	692	
14	0	0	0	0	470	592	
15	0	0	0	0	451	386	
0	0	0	0	0	455	206	
1	0	0	0	0	513	178	
2	0	0	0	0	575	270	
3	0	0	0	0	602	523	
4	0	0	0	0	579	660	
5	0	0	0	0	540	659	
6	0	0	0	0	512	648	
7	0	0	0	0	492	612	
8	0	0	0	0	473	522	
9	0	0	0	0	489	369	
10	0	0	0	0	513	320	
11	0	0	0	0	539	375	
12	0	0	0	0	545	477	
13	0	0	0	0	515	536	
14	0	0	0	0	507	587	
15	0	0	0	0	498	625	
0	0	0	0	0	492	638	
1	0	0	0	0	500	608	
2	0	0	0	0	502	626	
3	0	0	0	0	499	572	
4	0	0	0	0	487	509	
5	0	0	0	0	490	368	
6	0	0	0	0	503	376	
7	0	0	0	0	514	407	
8	0	0	0	0	532	430	
9	0	0	0	0	541	447	
10	0	0	0	0	533	494	
11	0	0	0	0	527	535	
12	0	0	0	0	525	575	
13	0	0	0	0	520	598	
14	0	0	0	0	515	596	
15	0	0	0	0	505	602	
0	0	0	0	0	492	584	
1	0	0	0	0	483	507	
2	0	0	0	0	483	466	
3	0	0	0	0	490	590	
4	0	0	0	0	480	632	
5	0	0	0	0	486	524	
6	0	0	0	0	497	363	
7	0	0	0	0	520	356	
8	0	0	0	0	523	422	
9	0	0	0	0	523	347	
10	0	0	0	0	537	209	
11	0	0	0	0	547	338	
12	0	0	0	0	553	478	
13	0	0	0	0	541	540	
14	0	0	0	0	526	561	
15	0	0	0	0	524	574	
0	0	0	0	0	525	588	
1	0	0	0	0	515	592	
2	0	0	0	0	508	605	
3	0	0	0	0	500	609	
4	0	0	0	0	502	604	
5	0	0	0	0	502	593	
6	0	0	0	0	498	568	
7	0	0	0	0	491	532	
8	0	0	0	0	471	469	
9	0	0	0	0	482	427	
10	0	0	0	0	508	513	
11	0	0	0	0	524	599	
12	0	0	0	0	534	636	
13	0	0	0	0	534	605	
14	0	0	0	0	510	551	
15	0	0	0	0	481	484	
0	0	0	0	0	466	243	
1	0	0	0	0	512	196	
2	0	0	0	0	548	403	
3	0	0	0	0	559	522	
4	0	0	0	0	542	518	
5	0	0	0	0	515	487	
6	0	0	0	0	511	546	
7	0	0	0	0	508	572	
8	0	0	0	0	507	584	
9	0	0	0	0	508	595	
10	0	0	0	0	504	563	
11	0	0	0	0	495	519	
12	0	0	0	0	503	489	
13	0	0	0	0	514	578	
14	0	0	0	0	501	626	
15	0	0	0	0	499	629	
0	0	0	0	0	502	671	
1	0	0	0	0	481	623	
2	0	0	0	0	494	470	
3	0	0	0	0	516	316	
4	0	0	0	0	530	279	
5	0	0	0	0	503	286	
6	0	0	0	0	492	215	
7	0	0	0	0	527	182	
8	0	0	0	0	574	386	
9	0	0	0	0	580	562	
10	0	0	0	0	561	628	
11	0	0	0	0	535	633	
12	0	0	0	0	510	611	
13	0	0	0	0	496	612	
14	0	0	0	0	489	587	
15	0	0	0	0	492	571	
0	0	0	0	0	492	580	
1	0	0	0	0	498	581	
2	0	0	0	0	502	629	
3	0	0	0	0	504	634	
4	0	0	0	0	500	568	
5	0	0	0	0	507	592	
6	0	0	0	0	500	602	
7	0	0	0	0	463	512	
8	0	0	0	0	440	401	
9	0	0	0	0	462	367	
10	0	0	0	0	505	271	
11	0	0	0	0	572	296	
12	0	0	0	0	594	439	
13	0	0	0	0	572	455	
14	0	0	0	0	559	419	
15	0	0	0	0	551	520	
0	0	0	0	0	545	617	
1	0	0	0	0	538	648	
2	0	0	0	0	512	656	
3	0	0	0	0	476	565	
4	0	0	0	0	460	423	
5	0	0	0	0	469	400	
6	0	0	0	0	489	461	
7	0	0	0	0	503	509	
8	0	0	0	0	512	520	
9	0	0	0	0	513	526	
10	0	0	0	0	504	524	
11	0	0	0	0	495	505	
12	0	0	0	0	498	517	
13	0	0	0	0	504	526	
14	0	0	0	0	501	616	
15	0	0	0	0	504	719	
0	0	0	0	0	500	663	
1	0	0	0	0	510	602	
2	0	0	0	0	510	519	
3	0	0	0	0	470	372	
4	0	0	0	0	454	159	
5	0	0	0	0	514	131	
6	0	0	0	0	587	352	
7	0	0	0	0	599	490	
8	0	0	0	0	580	555	
9	0	0	0	0	555	594	
10	0	0	0	0	519	578	
11	0	0	0	0	503	612	
12	0	0	0	0	500	620	
13	0	0	0	0	495	599	
14	0	0	0	0	491	592	
15	0	0	0	0	481	587	
0	0	0	0	0	473	563	
1	0	0	0	0	502	518	
2	0	0	0	0	520	534	
3	0	0	0	0	519	550	
4	0	0	0	0	512	451	
5	0	0	0	0	511	415	
6	0	0	0	0	530	449	
7	0	0	0	0	539	445	
8	0	0	0	0	547	518	
9	0	0	0	0	530	575	
10	0	0	0	0	498	496	
11	0	0	0	0	476	419	
12	0	0	0	0	475	432	
13	0	0	0	0	488	465	
14	0	0	0	0	507	517	
15	0	0	0	0	513	506	
0	0	0	0	0	516	584	
1	0	0	0	0	519	632	
2	0	0	0	0	516	602	
3	0	0	0	0	509	551	
4	0	0	0	0	503	476	
5	0	0	0	0	488	376	
6	0	0	0	0	479	276	
7	0	0	0	0	514	348	
8	0	0	0	0	551	568	
9	0	0	0	0	553	690	
10	0	0	0	0	527	698	
11	0	0	0	0	495	594	
12	0	0	0	0	486	527	
13	0	0	0	0	501	447	
14	0	0	0	0	531	448	
15	0	0	0	0	546	472	
0	0	0	0	0	529	367	
1	0	0	0	0	505	341	
2	0	0	0	0	512	380	
3	0	0	0	0	539	507	
4	0	0	0	0	530	550	
5	0	0	0	0	516	528	
6	0	0	0	0	503	571	
7	0	0	0	0	492	632	
8	0	0	0	0	489	710	
9	0	0	0	0	503	666	
10	0	0	0	0	523	657	
11	0	0	0	0	512	638	
12	0	0	0	0	487	475	
13	0	0	0	0	457	239	
14	0	0	0	0	479	231	
15	0	0	0	0	530	377	
0	0	0	0	0	566	541	
1	0	0	0	0	566	584	
2	0	0	0	0	520	480	
3	0	0	0	0	505	455	
4	0	0	0	0	497	494	
5	0	0	0	0	492	507	
6	0	0	0	0	495	429	
7	0	0	0	0	507	420	
8	0	0	0	0	504	494	
9	0	0	0	0	487	481	
10	0	0	0	0	505	487	
11	0	0	0	0	538	548	
12	0	0	0	0	546	591	
13	0	0	0	0	534	583	
14	0	0	0	0	518	577	
15	0	0	0	0	509	551	
0	0	0	0	0	504	539	
1	0	0	0	0	507	554	
2	0	0	0	0	503	559	
3	0	0	0	0	505	579	
4	0	0	0	0	510	643	
5	0	0	0	0	517	663	
6	0	0	0	0	508	670	
7	0	0	0	0	486	666	
8	0	0	0	0	469	555	
9	0	0	0	0	455	402	
10	0	0	0	0	467	239	
11	0	0	0	0	529	310	
12	0	0	0	0	551	378	
13	0	0	0	0	549	301	
14	0	0	0	0	558	399	
15	0	0	0	0	557	484	
0	0	0	0	0	544	429	
1	0	0	0	0	523	432	
2	0	0	0	0	506	468	
3	0	0	0	0	505	512	
4	0	0	0	0	503	492	
5	0	0	0	0	499	465	
6	0	0	0	0	502	508	
7	0	0	0	0	510	558	
8	0	0	0	0	520	599	
9	0	0	0	0	516	615	
10	0	0	0	0	509	604	
11	0	0	0	0	508	582	
12	0	0	0	0	510	568	
13	0	0	0	0	508	574	
14	0	0	0	0	500	582	
15	0	0	0	0	496	636	
0	0	0	0	0	494	664	
1	0	0	0	0	495	655	
2	0	0	0	0	496	654	
3	0	0	0	0	483	619	
4	0	0	0	0	478	518	
5	0	0	0	0	499	343	
6	0	0	0	0	530	321	
7	0	0	0	0	517	342	
8	0	0	0	0	502	341	
9	0	0	0	0	519	180	
10	0	0	0	0	573	266	
11	0	0	0	0	606	505	
12	0	0	0	0	588	583	
13	0	0	0	0	533	492	
14	0	0	0	0	501	384	
15	0	0	0	0	508	504	
0	0	0	0	0	511	587	
1	0	0	0	0	506	591	
2	0	0	0	0	496	572	
3	0	0	0	0	487	572	
4	0	0	0	0	487	551	
5	0	0	0	0	487	526	
6	0	0	0	0	487	518	
7	0	0	0	0	487	491	
8	0	0	0	0	500	519	
9	0	0	0	0	509	595	
10	0	0	0	0	509	613	
11	0	0	0	0	513	606	
12	0	0	0	0	516	582	
13	0	0	0	0	496	561	
14	0	0	0	0	475	491	
15	0	0	0	0	476	287	
0	0	0	0	0	518	374	
1	0	0	0	0	532	523	
2	0	0	0	0	508	620	
3	0	0	0	0	487	588	
4	0	0	0	0	501	508	
5	0	0	0	0	532	514	
6	0	0	0	0	546	594	
7	0	0	0	0	536	581	
8	0	0	0	0	499	442	
9	0	0	0	0	506	279	
10	0	0	0	0	557	407	
11	0	0	0	0	582	562	
12	0	0	0	0	588	647	
13	0	0	0	0	539	643	
14	0	0	0	0	480	511	
15	0	0	0	0	473	462	
0	0	0	0	0	473	411	
1	0	0	0	0	507	425	
2	0	0	0	0	532	529	
3	0	0	0	0	524	558	
4	0	0	0	0	494	456	
5	0	0	0	0	463	448	
6	0	0	0	0	455	532	
7	0	0	0	0	497	552	
8	0	0	0	0	529	547	
9	0	0	0	0	513	454	
10	0	0	0	0	484	333	
11	0	0	0	0	480	238	
12	0	0	0	0	510	214	
13	0	0	0	0	548	301	
14	0	0	0	0	578	484	
15	0	0	0	0	570	643	
0	0	0	0	0	530	673	
1	0	0	0	0	503	634	
2	0	0	0	0	502	545	
3	0	0	0	0	508	495	
4	0	0	0	0	514	563	
5	0	0	0	0	520	620	
6	0	0	0	0	523	646	
7	0	0	0	0	521	659	
8	0	0	0	0	513	683	
9	0	0	0	0	503	718	
10	0	0	0	0	498	724	
11	0	0	0	0	490	692	
12	0	0	0	0	456	610	
13	0	0	0	0	447	514	
14	0	0	0	0	455	419	
15	0	0	0	0	481	418	
0	0	0	0	0	496	416	
1	0	0	0	0	511	365	
2	0	0	0	0	535	166	
3	0	0	0	0	538	83	
4	0	0	0	0	560	266	
5	0	0	0	0	575	419	
6	0	0	0	0	574	470	
7	0	0	0	0	554	489	
8	0	0	0	0	528	519	
9	0	0	0	0	517	570	
10	0	0	0	0	512	609	
11	0	0	0	0	504	609	
12	0	0	0	0	502	619	
13	0	0	0	0	504	606	
14	0	0	0	0	498	572	
15	0	0	0	0	490	565	
0	0	0	0	0	496	550	
1	0	0	0	0	500	534	
2	0	0	0	0	498	537	
3	0	0	0	0	500	540	
4	0	0	0	0	505	547	
5	0	0	0	0	510	560	
6	0	0	0	0	511	564	
7	0	0	0	0	514	588	
8	0	0	0	0	510	622	
9	0	0	0	0	497	642	
10	0	0	0	0	498	602	
11	0	0	0	0	510	585	
12	0	0	0	0	505	620	
13	0	0	0	0	483	567	
14	0	0	0	0	462	462	
15	0	0	0	0	478	302	
0	0	0	0	0	504	268	
1	0	0	0	0	539	212	
2	0	0	0	0	542	131	
3	0	0	0	0	542	242	
4	0	0	0	0	549	409	
5	0	0	0	0	536	450	
6	0	0	0	0	551	472	
7	0	0	0	0	564	510	
8	0	0	0	0	549	589	
9	0	0	0	0	520	660	
10	0	0	0	0	492	651	
11	0	0	0	0	494	606	
12	0	0	0	0	503	625	
13	0	0	0	0	508	662	
14	0	0	0	0	502	697	
15	0	0	0	0	490	649	
0	0	0	0	0	466	508	
1	0	0	0	0	471	306	
2	0	0	0	0	492	125	
3	0	0	0	0	510	222	
4	0	0	0	0	537	385	
5	0	0	0	0	566	584	
6	0	0	0	0	559	636	
7	0	0	0	0	534	582	
8	0	0	0	0	519	552	
9	0	0	0	0	509	541	
10	0	0	0	0	506	548	
11	0	0	0	0	504	531	
12	0	0	0	0	496	558	
13	0	0	0	0	495	607	
14	0	0	0	0	492	603	
15	0	0	0	0	499	624	
0	0	0	0	0	508	661	
1	0	0	0	0	504	677	
2	0	0	0	0	493	649	
3	0	0	0	0	489	574	
4	0	0	0	0	467	420	
5	0	0	0	0	448	235	
6	0	0	0	0	468	67	
7	0	0	0	0	522	203	
8	0	0	0	0	570	400	
9	0	0	0	0	598	544	
10	0	0	0	0	592	610	
11	0	0	0	0	560	637	
12	0	0	0	0	526	640	
13	0	0	0	0	494	592	
14	0	0	0	0	482	496	
15	0	0	0	0	501	416	
0	0	0	0	0	515	462	
1	0	0	0	0	506	650	
2	0	0	0	0	503	684	
3	0	0	0	0	510	702	
4	0	0	0	0	501	689	
5	0	0	0	0	472	572	
6	0	0	0	0	440	389	
7	0	0	0	0	462	174	
8	0	0	0	0	509	179	
9	0	0	0	0	568	457	
10	0	0	0	0	577	593	
11	0	0	0	0	540	610	
12	0	0	0	0	507	495	
13	0	0	0	0	504	358	
14	0	0	0	0	522	322	
15	0	0	0	0	536	359	
0	0	0	0	0	535	496	
1	0	0	0	0	530	608	
2	0	0	0	0	516	656	
3	0	0	0	0	503	677	
4	0	0	0	0	494	719	
5	0	0	0	0	480	689	
6	0	0	0	0	477	590	
7	0	0	0	0	495	507	
8	0	0	0	0	527	562	
9	0	0	0	0	521	598	
10	0	0	0	0	497	432	
11	0	0	0	0	491	356	
12	0	0	0	0	492	385	
13	0	0	0	0	511	332	
14	0	0	0	0	513	378	
15	0	0	0	0	522	385	
0	0	0	0	0	550	394	
1	0	0	0	0	571	527	
2	0	0	0	0	565	615	
3	0	0	0	0	535	643	
4	0	0	0	0	490	583	
5	0	0	0	0	459	491	
6	0	0	0	0	455	414	
7	0	0	0	0	493	419	
8	0	0	0	0	535	455	
9	0	0	0	0	545	529	
10	0	0	0	0	531	563	
11	0	0	0	0	520	564	
12	0	0	0	0	514	594	
13	0	0	0	0	498	623	
14	0	0	0	0	483	690	
15	0	0	0	0	465	740	
0	0	0	0	0	476	721	
1	0	0	0	0	506	677	
2	0	0	0	0	521	588	
3	0	0	0	0	486	468	
4	0	0	0	0	439	216	
5	0	0	0	0	466	0	
6	0	0	0	0	561	0	
7	0	0	0	0	612	335	
8	0	0	0	0	622	594	
9	0	0	0	0	579	634	
10	0	0	0	0	529	505	
11	0	0	0	0	521	516	
12	0	0	0	0	507	593	
13	0	0	0	0	494	630	
14	0	0	0	0	488	617	
15	0	0	0	0	486	515	
0	0	0	0	0	481	449	
1	0	0	0	0	484	494	
2	0	0	0	0	493	577	
3	0	0	0	0	512	646	
4	0	0	0	0	522	631	
5	0	0	0	0	514	675	
6	0	0	0	0	502	842	
7	0	0	0	0	487	860	
8	0	0	0	0	491	794	
9	0	0	0	0	486	668	
10	0	0	0	0	454	462	
11	0	0	0	0	427	152	
12	0	0	0	0	447	0	
13	0	0	0	0	554	0	
14	0	0	0	0	632	52	
15	0	0	0	0	642	423	
0	0	0	0	0	624	651	
1	0	0	0	0	583	709	
2	0	0	0	0	532	689	
3	0	0	0	0	499	677	
4	0	0	0	0	480	697	
5	0	0	0	0	475	692	
6	0	0	0	0	463	687	
7	0	0	0	0	454	671	
8	0	0	0	0	445	583	
9	0	0	0	0	460	472	
10	0	0	0	0	494	478	
11	0	0	0	0	522	474	
12	0	0	0	0	534	500	
13	0	0	0	0	542	525	
14	0	0	0	0	542	515	
15	0	0	0	0	534	572	
0	0	0	0	0	526	673	
1	0	0	0	0	521	695	
2	0	0	0	0	518	706	
3	0	0	0	0	500	698	
4	0	0	0	0	472	629	
5	0	0	0	0	444	422	
6	0	0	0	0	439	93	
7	0	0	0	0	490	107	
8	0	0	0	0	575	283	
9	0	0	0	0	608	394	
10	0	0	0	0	581	393	
11	0	0	0	0	559	500	
12	0	0	0	0	541	653	
13	0	0	0	0	518	563	
14	0	0	0	0	497	471	
15	0	0	0	0	473	486	
0	0	0	0	0	464	505	
1	0	0	0	0	478	464	
2	0	0	0	0	493	502	
3	0	0	0	0	492	559	
4	0	0	0	0	477	557	
5	0	0	0	0	490	533	
6	0	0	0	0	512	502	
7	0	0	0	0	527	592	
8	0	0	0	0	522	652	
9	0	0	0	0	522	544	
10	0	0	0	0	546	419	
11	0	0	0	0	576	529	
12	0	0	0	0	542	607	
13	0	0	0	0	525	554	
14	0	0	0	0	513	507	
15	0	0	0	0	512	520	
0	0	0	0	0	485	490	
1	0	0	0	0	437	393	
2	0	0	0	0	437	178	
3	0	0	0	0	496	155	
4	0	0	0	0	543	284	
5	0	0	0	0	577	472	
6	0	0	0	0	584	639	
7	0	0	0	0	570	747	
8	0	0	0	0	538	852	
9	0	0	0	0	500	906	
10	0	0	0	0	466	870	
11	0	0	0	0	447	720	
12	0	0	0	0	443	500	
13	0	0	0	0	460	342	
14	0	0	0	0	492	181	
15	0	0	0	0	507	207	
0	0	0	0	0	533	299	
1	0	0	0	0	573	397	
2	0	0	0	0	575	534	
3	0	0	0	0	552	601	
4	0	0	0	0	539	617	
5	0	0	0	0	517	605	
6	0	0	0	0	486	450	
7	0	0	0	0	452	402	
8	0	0	0	0	455	431	
9	0	0	0	0	494	475	
10	0	0	0	0	522	565	
11	0	0	0	0	540	602	
12	0	0	0	0	551	597	
13	0	0	0	0	530	538	
14	0	0	0	0	498	408	
15	0	0	0	0	494	415	
0	0	0	0	0	486	380	
1	0	0	0	0	488	401	
2	0	0	0	0	521	456	
3	0	0	0	0	545	512	
4	0	0	0	0	554	590	
5	0	0	0	0	547	703	
6	0	0	0	0	528	808	
7	0	0	0	0	502	841	
8	0	0	0	0	471	787	
9	0	0	0	0	430	600	
10	0	0	0	0	435	355	
11	0	0	0	0	468	167	
12	0	0	0	0	518	212	
13	0	0	0	0	556	320	
14	0	0	0	0	558	331	
15	0	0	0	0	545	314	
0	0	0	0	0	539	300	
1	0	0	0	0	550	435	
2	0	0	0	0	544	616	
3	0	0	0	0	544	732	
4	0	0	0	0	530	765	
5	0	0	0	0	509	818	
6	0	0	0	0	490	826	
7	0	0	0	0	471	694	
8	0	0	0	0	460	483	
9	0	0	0	0	460	460	
10	0	0	0	0	462	404	
11	0	0	0	0	484	184	
12	0	0	0	0	516	194	
13	0	0	0	0	537	337	
14	0	0	0	0	561	302	
15	0	0	0	0	555	329	
0	0	0	0	0	541	508	
1	0	0	0	0	545	668	
2	0	0	0	0	548	725	
3	0	0	0	0	542	755	
4	0	0	0	0	519	784	
5	0	0	0	0	451	774	
6	0	0	0	0	397	566	
7	0	0	0	0	418	298	
8	0	0	0	0	482	229	
9	0	0	0	0	522	282	
10	0	0	0	0	542	359	
11	0	0	0	0	565	446	
12	0	0	0	0	574	496	
13	0	0	0	0	562	594	
14	0	0	0	0	543	610	
15	0	0	0	0	533	678	
0	0	0	0	0	524	679	
1	0	0	0	0	515	692	
2	0	0	0	0	490	664	
3	0	0	0	0	468	587	
4	0	0	0	0	464	531	
5	0	0	0	0	456	512	
6	0	0	0	0	471	460	
7	0	0	0	0	489	352	
8	0	0	0	0	523	280	
9	0	0	0	0	538	323	
10	0	0	0	0	523	461	
11	0	0	0	0	513	491	
12	0	0	0	0	517	451	
13	0	0	0	0	540	422	
14	0	0	0	0	552	473	
15	0	0	0	0	544	525	
0	0	0	0	0	524	521	
1	0	0	0	0	519	597	
2	0	0	0	0	514	599	
3	0	0	0	0	504	604	
4	0	0	0	0	496	624	
5	0	0	0	0	486	592	
6	0	0	0	0	472	505	
