# OpenSignals Text File Format. Version 1
# {"84:BA:20:AE:BC:92": {"position": 0, "device": "bitalino_rev", "device name": "84:BA:20:AE:BC:92", "device connection": "BTH84:BA:20:AE:BC:92", "sampling rate": 100, "resolution": [4, 1, 1, 1, 1, 10, 10, 10], "firmware version": 1282, "comments": "", "keywords": "", "mode": 0, "sync interval": 2, "date": "2025-10-22", "time": "11:18:26.53", "channels": [2, 3, 4], "sensor": ["RAW", "RESPBIT", "ECGBIT"], "label": ["A2", "A3", "A4"], "column": ["nSeq", "I1", "I2", "O1", "O2", "A2", "A3", "A4"], "special": [{}, {}, {}], "digital IO": [0, 0, 1, 1], "convertedValues": 0}}
# EndOfHeader
0	0	0	0	0	487	934	483	
1	0	0	0	0	488	937	451	
2	0	0	0	0	488	940	550	
3	0	0	0	0	488	942	874	
4	0	0	0	0	489	946	1022	
5	0	0	0	0	489	949	905	
6	0	0	0	0	488	951	540	
7	0	0	0	0	487	954	380	
8	0	0	0	0	486	958	336	
9	0	0	0	0	486	962	324	
10	0	0	0	0	485	965	333	
11	0	0	0	0	486	967	355	
12	0	0	0	0	484	968	380	
13	0	0	0	0	482	968	397	
14	0	0	0	0	482	968	414	
15	0	0	0	0	481	967	409	
0	0	0	0	0	481	966	455	
1	0	0	0	0	481	964	456	
2	0	0	0	0	480	963	451	
3	0	0	0	0	480	961	468	
4	0	0	0	0	480	959	481	
5	0	0	0	0	481	956	489	
6	0	0	0	0	482	953	518	
7	0	0	0	0	481	950	531	
8	0	0	0	0	479	945	566	
9	0	0	0	0	479	941	558	
10	0	0	0	0	479	935	579	
11	0	0	0	0	480	931	585	
12	0	0	0	0	482	924	575	
13	0	0	0	0	483	919	572	
14	0	0	0	0	486	913	540	
15	0	0	0	0	487	907	469	
0	0	0	0	0	490	900	456	
1	0	0	0	0	491	894	441	
2	0	0	0	0	492	888	453	
3	0	0	0	0	492	882	443	
4	0	0	0	0	493	875	417	
5	0	0	0	0	494	869	408	
6	0	0	0	0	496	861	423	
7	0	0	0	0	496	854	383	
8	0	0	0	0	496	847	449	
9	0	0	0	0	496	839	438	
10	0	0	0	0	496	832	438	
11	0	0	0	0	495	826	430	
12	0	0	0	0	496	820	448	
13	0	0	0	0	496	815	442	
14	0	0	0	0	496	810	431	
15	0	0	0	0	495	805	456	
0	0	0	0	0	495	799	470	
1	0	0	0	0	494	794	491	
2	0	0	0	0	492	788	510	
3	0	0	0	0	491	782	504	
4	0	0	0	0	491	775	532	
5	0	0	0	0	493	768	533	
6	0	0	0	0	494	760	529	
7	0	0	0	0	495	752	526	
8	0	0	0	0	496	743	551	
9	0	0	0	0	498	735	540	
10	0	0	0	0	499	728	526	
11	0	0	0	0	499	721	535	
12	0	0	0	0	497	714	535	
13	0	0	0	0	497	707	511	
14	0	0	0	0	498	700	527	
15	0	0	0	0	496	694	524	
0	0	0	0	0	495	688	519	
1	0	0	0	0	494	681	521	
2	0	0	0	0	492	676	531	
3	0	0	0	0	491	671	538	
4	0	0	0	0	490	666	515	
5	0	0	0	0	489	662	489	
6	0	0	0	0	489	657	476	
7	0	0	0	0	488	653	459	
8	0	0	0	0	489	649	465	
9	0	0	0	0	487	646	444	
10	0	0	0	0	487	643	452	
11	0	0	0	0	485	640	432	
12	0	0	0	0	484	637	584	
13	0	0	0	0	484	635	924	
14	0	0	0	0	486	633	1022	
15	0	0	0	0	487	631	828	
0	0	0	0	0	488	628	499	
1	0	0	0	0	489	625	338	
2	0	0	0	0	489	624	316	
3	0	0	0	0	489	625	323	
4	0	0	0	0	491	626	328	
5	0	0	0	0	490	627	332	
6	0	0	0	0	491	627	369	
7	0	0	0	0	489	627	397	
8	0	0	0	0	490	626	404	
9	0	0	0	0	489	625	421	
10	0	0	0	0	488	624	446	
11	0	0	0	0	486	622	470	
12	0	0	0	0	483	620	468	
13	0	0	0	0	484	618	478	
14	0	0	0	0	485	616	491	
15	0	0	0	0	485	615	494	
0	0	0	0	0	485	612	509	
1	0	0	0	0	485	611	534	
2	0	0	0	0	487	610	556	
3	0	0	0	0	487	609	582	
4	0	0	0	0	489	608	591	
5	0	0	0	0	491	609	573	
6	0	0	0	0	492	609	550	
7	0	0	0	0	492	611	544	
8	0	0	0	0	492	613	515	
9	0	0	0	0	493	615	486	
10	0	0	0	0	495	620	444	
11	0	0	0	0	496	627	427	
12	0	0	0	0	499	635	391	
13	0	0	0	0	501	643	389	
14	0	0	0	0	501	652	423	
15	0	0	0	0	500	662	441	
0	0	0	0	0	500	671	478	
1	0	0	0	0	500	679	481	
2	0	0	0	0	500	688	504	
3	0	0	0	0	500	697	502	
4	0	0	0	0	502	705	538	
5	0	0	0	0	504	712	574	
6	0	0	0	0	504	719	596	
7	0	0	0	0	504	725	596	
8	0	0	0	0	504	729	589	
9	0	0	0	0	504	734	591	
10	0	0	0	0	504	738	575	
11	0	0	0	0	504	743	568	
12	0	0	0	0	504	747	587	
13	0	0	0	0	502	752	584	
14	0	0	0	0	502	758	592	
15	0	0	0	0	500	764	587	
0	0	0	0	0	501	770	598	
1	0	0	0	0	499	775	575	
2	0	0	0	0	501	780	568	
3	0	0	0	0	501	784	556	
4	0	0	0	0	502	787	558	
5	0	0	0	0	502	789	541	
6	0	0	0	0	502	792	553	
7	0	0	0	0	498	794	543	
8	0	0	0	0	496	797	508	
9	0	0	0	0	497	800	519	
10	0	0	0	0	497	804	522	
11	0	0	0	0	496	808	511	
12	0	0	0	0	495	812	507	
13	0	0	0	0	495	816	516	
14	0	0	0	0	495	821	534	
15	0	0	0	0	495	824	548	
0	0	0	0	0	495	829	530	
1	0	0	0	0	495	832	511	
2	0	0	0	0	495	836	483	
3	0	0	0	0	494	840	473	
4	0	0	0	0	493	844	454	
5	0	0	0	0	492	847	471	
6	0	0	0	0	492	852	453	
7	0	0	0	0	491	856	448	
8	0	0	0	0	491	859	584	
9	0	0	0	0	492	863	929	
10	0	0	0	0	488	865	1022	
11	0	0	0	0	487	868	856	
12	0	0	0	0	486	869	524	
13	0	0	0	0	484	869	361	
14	0	0	0	0	485	868	334	
15	0	0	0	0	485	868	333	
0	0	0	0	0	488	867	324	
1	0	0	0	0	488	866	356	
2	0	0	0	0	488	863	377	
3	0	0	0	0	489	860	390	
4	0	0	0	0	491	856	408	
5	0	0	0	0	495	853	423	
6	0	0	0	0	497	849	448	
7	0	0	0	0	500	843	461	
8	0	0	0	0	503	836	484	
9	0	0	0	0	502	827	510	
10	0	0	0	0	500	818	520	
11	0	0	0	0	498	810	531	
12	0	0	0	0	497	801	542	
13	0	0	0	0	494	792	568	
14	0	0	0	0	492	785	599	
15	0	0	0	0	492	779	628	
0	0	0	0	0	491	773	645	
1	0	0	0	0	491	767	634	
2	0	0	0	0	491	763	635	
3	0	0	0	0	492	758	615	
4	0	0	0	0	493	753	537	
5	0	0	0	0	495	748	486	
6	0	0	0	0	497	743	442	
7	0	0	0	0	500	740	391	
8	0	0	0	0	503	736	369	
9	0	0	0	0	506	732	352	
10	0	0	0	0	510	728	343	
11	0	0	0	0	511	724	346	
12	0	0	0	0	512	719	377	
13	0	0	0	0	513	715	405	
14	0	0	0	0	513	710	420	
15	0	0	0	0	512	706	435	
0	0	0	0	0	511	702	450	
1	0	0	0	0	510	697	456	
2	0	0	0	0	510	692	463	
3	0	0	0	0	510	688	446	
4	0	0	0	0	509	683	491	
5	0	0	0	0	509	678	495	
6	0	0	0	0	510	672	515	
7	0	0	0	0	510	666	521	
8	0	0	0	0	510	660	521	
9	0	0	0	0	509	653	518	
10	0	0	0	0	505	645	526	
11	0	0	0	0	501	638	520	
12	0	0	0	0	499	631	515	
13	0	0	0	0	495	624	516	
14	0	0	0	0	490	615	518	
15	0	0	0	0	486	608	515	
0	0	0	0	0	483	600	517	
1	0	0	0	0	483	592	525	
2	0	0	0	0	484	584	535	
3	0	0	0	0	484	575	534	
4	0	0	0	0	486	566	539	
5	0	0	0	0	487	555	548	
6	0	0	0	0	489	542	571	
7	0	0	0	0	492	527	591	
8	0	0	0	0	496	511	598	
9	0	0	0	0	498	493	638	
10	0	0	0	0	502	476	654	
11	0	0	0	0	504	461	719	
12	0	0	0	0	507	448	764	
13	0	0	0	0	510	438	720	
14	0	0	0	0	512	431	634	
15	0	0	0	0	513	426	572	
0	0	0	0	0	514	423	526	
1	0	0	0	0	515	422	532	
2	0	0	0	0	515	421	524	
3	0	0	0	0	512	421	489	
4	0	0	0	0	510	422	429	
5	0	0	0	0	508	424	420	
6	0	0	0	0	507	427	617	
7	0	0	0	0	504	431	891	
8	0	0	0	0	503	435	888	
9	0	0	0	0	500	440	535	
10	0	0	0	0	500	444	306	
11	0	0	0	0	499	446	209	
12	0	0	0	0	497	449	221	
13	0	0	0	0	494	452	216	
14	0	0	0	0	494	456	224	
15	0	0	0	0	495	461	243	
0	0	0	0	0	495	467	302	
1	0	0	0	0	495	473	340	
2	0	0	0	0	495	481	385	
3	0	0	0	0	495	490	369	
4	0	0	0	0	495	498	377	
5	0	0	0	0	496	505	378	
6	0	0	0	0	497	511	391	
7	0	0	0	0	498	515	432	
8	0	0	0	0	497	520	465	
9	0	0	0	0	495	524	499	
10	0	0	0	0	495	528	524	
11	0	0	0	0	496	532	559	
12	0	0	0	0	496	536	606	
13	0	0	0	0	496	540	622	
14	0	0	0	0	495	543	638	
15	0	0	0	0	494	545	639	
0	0	0	0	0	494	548	678	
1	0	0	0	0	494	550	665	
2	0	0	0	0	495	552	621	
3	0	0	0	0	497	555	577	
4	0	0	0	0	498	557	516	
5	0	0	0	0	500	559	489	
6	0	0	0	0	503	561	474	
7	0	0	0	0	503	564	472	
8	0	0	0	0	505	566	471	
9	0	0	0	0	508	568	495	
10	0	0	0	0	509	571	471	
11	0	0	0	0	510	573	494	
12	0	0	0	0	511	576	483	
13	0	0	0	0	515	580	484	
14	0	0	0	0	514	585	469	
15	0	0	0	0	511	590	489	
0	0	0	0	0	510	595	457	
1	0	0	0	0	509	601	444	
2	0	0	0	0	508	607	443	
3	0	0	0	0	505	612	436	
4	0	0	0	0	504	619	436	
5	0	0	0	0	503	625	424	
6	0	0	0	0	502	631	430	
7	0	0	0	0	503	636	447	
8	0	0	0	0	504	640	484	
9	0	0	0	0	504	644	492	
10	0	0	0	0	504	649	499	
11	0	0	0	0	505	652	487	
12	0	0	0	0	505	657	495	
13	0	0	0	0	505	660	506	
14	0	0	0	0	506	664	528	
15	0	0	0	0	505	668	513	
0	0	0	0	0	505	673	547	
1	0	0	0	0	504	677	546	
2	0	0	0	0	506	680	551	
3	0	0	0	0	507	684	572	
4	0	0	0	0	506	687	589	
5	0	0	0	0	506	689	598	
6	0	0	0	0	504	691	606	
7	0	0	0	0	501	692	619	
8	0	0	0	0	500	693	644	
9	0	0	0	0	498	694	626	
10	0	0	0	0	497	694	607	
11	0	0	0	0	497	694	555	
12	0	0	0	0	497	694	537	
13	0	0	0	0	497	693	531	
14	0	0	0	0	496	692	515	
15	0	0	0	0	495	691	505	
0	0	0	0	0	495	689	467	
1	0	0	0	0	496	686	548	
2	0	0	0	0	495	684	823	
3	0	0	0	0	494	680	1022	
4	0	0	0	0	496	678	916	
5	0	0	0	0	498	674	595	
6	0	0	0	0	499	668	400	
7	0	0	0	0	499	663	340	
8	0	0	0	0	497	659	355	
9	0	0	0	0	496	655	361	
10	0	0	0	0	496	650	357	
11	0	0	0	0	496	645	369	
12	0	0	0	0	497	640	395	
13	0	0	0	0	499	634	405	
14	0	0	0	0	499	628	416	
15	0	0	0	0	498	622	441	
0	0	0	0	0	498	616	440	
1	0	0	0	0	498	610	467	
2	0	0	0	0	497	605	471	
3	0	0	0	0	494	599	492	
4	0	0	0	0	493	593	518	
5	0	0	0	0	494	588	531	
6	0	0	0	0	494	582	544	
7	0	0	0	0	493	576	543	
8	0	0	0	0	494	571	564	
9	0	0	0	0	492	565	578	
10	0	0	0	0	492	560	578	
11	0	0	0	0	491	555	574	
12	0	0	0	0	492	551	569	
13	0	0	0	0	493	546	543	
14	0	0	0	0	493	542	505	
15	0	0	0	0	493	538	481	
0	0	0	0	0	494	534	436	
1	0	0	0	0	493	529	431	
2	0	0	0	0	496	525	419	
3	0	0	0	0	497	520	423	
4	0	0	0	0	500	516	425	
5	0	0	0	0	504	511	443	
6	0	0	0	0	507	508	434	
7	0	0	0	0	509	504	455	
8	0	0	0	0	510	501	453	
9	0	0	0	0	512	499	445	
10	0	0	0	0	512	496	468	
11	0	0	0	0	511	495	470	
12	0	0	0	0	511	494	480	
13	0	0	0	0	511	493	480	
14	0	0	0	0	510	492	476	
15	0	0	0	0	510	492	482	
0	0	0	0	0	510	492	502	
1	0	0	0	0	509	491	503	
2	0	0	0	0	508	490	509	
3	0	0	0	0	507	489	499	
4	0	0	0	0	506	487	492	
5	0	0	0	0	506	485	503	
6	0	0	0	0	505	483	505	
7	0	0	0	0	505	481	508	
8	0	0	0	0	505	479	508	
9	0	0	0	0	506	477	503	
10	0	0	0	0	505	476	523	
11	0	0	0	0	504	475	527	
12	0	0	0	0	504	473	519	
13	0	0	0	0	504	472	520	
14	0	0	0	0	503	471	526	
15	0	0	0	0	504	469	507	
0	0	0	0	0	506	468	526	
1	0	0	0	0	508	466	521	
2	0	0	0	0	510	465	521	
3	0	0	0	0	511	463	522	
4	0	0	0	0	511	462	521	
5	0	0	0	0	510	461	526	
6	0	0	0	0	509	460	544	
7	0	0	0	0	508	459	561	
8	0	0	0	0	507	457	565	
9	0	0	0	0	507	455	547	
10	0	0	0	0	505	453	521	
11	0	0	0	0	503	451	498	
12	0	0	0	0	500	449	484	
13	0	0	0	0	498	447	493	
14	0	0	0	0	499	445	485	
15	0	0	0	0	496	443	446	
0	0	0	0	0	495	441	538	
1	0	0	0	0	493	440	821	
2	0	0	0	0	492	438	1022	
3	0	0	0	0	490	438	974	
4	0	0	0	0	491	436	618	
5	0	0	0	0	492	435	403	
6	0	0	0	0	494	435	357	
7	0	0	0	0	494	435	355	
8	0	0	0	0	495	436	368	
9	0	0	0	0	495	439	363	
10	0	0	0	0	495	440	385	
11	0	0	0	0	496	442	394	
12	0	0	0	0	496	442	402	
13	0	0	0	0	496	443	436	
14	0	0	0	0	495	444	464	
15	0	0	0	0	495	443	476	
0	0	0	0	0	494	443	491	
1	0	0	0	0	492	441	512	
2	0	0	0	0	491	439	526	
3	0	0	0	0	490	437	514	
4	0	0	0	0	491	435	547	
5	0	0	0	0	490	433	563	
6	0	0	0	0	492	431	606	
7	0	0	0	0	494	429	649	
8	0	0	0	0	494	427	646	
9	0	0	0	0	496	425	631	
10	0	0	0	0	494	423	598	
11	0	0	0	0	493	423	538	
12	0	0	0	0	495	424	548	
13	0	0	0	0	498	426	501	
14	0	0	0	0	500	430	444	
15	0	0	0	0	502	435	430	
0	0	0	0	0	503	441	381	
1	0	0	0	0	506	449	377	
2	0	0	0	0	509	457	356	
3	0	0	0	0	509	465	381	
4	0	0	0	0	510	473	407	
5	0	0	0	0	510	479	433	
6	0	0	0	0	511	484	422	
7	0	0	0	0	511	488	456	
8	0	0	0	0	511	492	435	
9	0	0	0	0	512	496	454	
10	0	0	0	0	511	500	457	
11	0	0	0	0	512	504	460	
12	0	0	0	0	512	508	437	
13	0	0	0	0	512	513	431	
14	0	0	0	0	512	517	430	
15	0	0	0	0	513	520	448	
0	0	0	0	0	513	524	496	
1	0	0	0	0	512	526	498	
2	0	0	0	0	509	527	507	
3	0	0	0	0	507	528	472	
4	0	0	0	0	505	529	479	
5	0	0	0	0	506	529	475	
6	0	0	0	0	506	530	458	
7	0	0	0	0	507	530	493	
8	0	0	0	0	507	530	519	
9	0	0	0	0	507	530	520	
10	0	0	0	0	508	531	537	
11	0	0	0	0	507	531	529	
12	0	0	0	0	508	530	550	
13	0	0	0	0	507	528	571	
14	0	0	0	0	505	526	578	
15	0	0	0	0	504	523	539	
0	0	0	0	0	503	519	550	
1	0	0	0	0	503	515	548	
2	0	0	0	0	502	510	526	
3	0	0	0	0	501	506	508	
4	0	0	0	0	501	501	499	
5	0	0	0	0	499	496	532	
6	0	0	0	0	499	493	521	
7	0	0	0	0	497	492	506	
8	0	0	0	0	495	492	565	
9	0	0	0	0	492	492	595	
10	0	0	0	0	494	492	587	
11	0	0	0	0	496	491	562	
12	0	0	0	0	497	489	572	
13	0	0	0	0	499	486	553	
14	0	0	0	0	502	483	559	
15	0	0	0	0	502	480	548	
0	0	0	0	0	503	478	502	
1	0	0	0	0	505	476	531	
2	0	0	0	0	506	476	769	
3	0	0	0	0	507	477	981	
4	0	0	0	0	508	480	848	
5	0	0	0	0	508	483	567	
6	0	0	0	0	508	484	425	
7	0	0	0	0	506	485	399	
8	0	0	0	0	503	486	420	
9	0	0	0	0	502	486	431	
10	0	0	0	0	499	486	446	
11	0	0	0	0	497	486	436	
12	0	0	0	0	498	488	427	
13	0	0	0	0	498	490	418	
14	0	0	0	0	497	492	413	
15	0	0	0	0	497	496	425	
0	0	0	0	0	498	498	420	
1	0	0	0	0	498	499	419	
2	0	0	0	0	497	499	440	
3	0	0	0	0	496	499	483	
4	0	0	0	0	497	498	515	
5	0	0	0	0	497	497	566	
6	0	0	0	0	496	496	599	
7	0	0	0	0	495	493	617	
8	0	0	0	0	495	492	613	
9	0	0	0	0	495	489	617	
10	0	0	0	0	494	489	605	
11	0	0	0	0	493	489	595	
12	0	0	0	0	494	492	589	
13	0	0	0	0	496	496	537	
14	0	0	0	0	497	500	499	
15	0	0	0	0	498	506	452	
0	0	0	0	0	500	511	420	
1	0	0	0	0	502	515	404	
2	0	0	0	0	504	518	406	
3	0	0	0	0	505	520	434	
4	0	0	0	0	507	520	459	
5	0	0	0	0	510	519	479	
6	0	0	0	0	511	517	492	
7	0	0	0	0	510	514	510	
8	0	0	0	0	511	510	529	
9	0	0	0	0	511	504	551	
10	0	0	0	0	511	498	563	
11	0	0	0	0	509	491	572	
12	0	0	0	0	509	483	587	
13	0	0	0	0	510	474	596	
14	0	0	0	0	513	464	596	
15	0	0	0	0	512	454	598	
0	0	0	0	0	511	443	592	
1	0	0	0	0	510	432	603	
2	0	0	0	0	508	422	585	
3	0	0	0	0	508	411	561	
4	0	0	0	0	508	400	548	
5	0	0	0	0	506	390	548	
6	0	0	0	0	504	378	556	
7	0	0	0	0	504	367	558	
8	0	0	0	0	503	355	540	
9	0	0	0	0	504	344	502	
10	0	0	0	0	505	335	481	
11	0	0	0	0	506	327	472	
12	0	0	0	0	510	320	472	
13	0	0	0	0	511	315	465	
14	0	0	0	0	511	310	478	
15	0	0	0	0	510	307	491	
0	0	0	0	0	508	303	485	
1	0	0	0	0	506	300	493	
2	0	0	0	0	507	297	508	
3	0	0	0	0	505	297	515	
4	0	0	0	0	504	296	512	
5	0	0	0	0	502	298	502	
6	0	0	0	0	503	301	494	
7	0	0	0	0	502	306	515	
8	0	0	0	0	501	311	534	
9	0	0	0	0	502	318	537	
10	0	0	0	0	504	324	515	
11	0	0	0	0	504	331	505	
12	0	0	0	0	503	339	507	
13	0	0	0	0	503	348	515	
14	0	0	0	0	503	359	528	
15	0	0	0	0	502	369	518	
0	0	0	0	0	500	380	485	
1	0	0	0	0	499	391	533	
2	0	0	0	0	498	402	769	
3	0	0	0	0	498	412	1008	
4	0	0	0	0	498	421	930	
5	0	0	0	0	498	428	618	
6	0	0	0	0	499	435	393	
7	0	0	0	0	500	441	296	
8	0	0	0	0	501	446	305	
9	0	0	0	0	502	451	323	
10	0	0	0	0	502	455	325	
11	0	0	0	0	502	461	340	
12	0	0	0	0	501	467	381	
13	0	0	0	0	500	474	391	
14	0	0	0	0	500	480	411	
15	0	0	0	0	499	486	447	
0	0	0	0	0	497	492	452	
1	0	0	0	0	496	497	451	
2	0	0	0	0	494	502	461	
3	0	0	0	0	494	505	462	
4	0	0	0	0	495	506	454	
5	0	0	0	0	495	505	484	
6	0	0	0	0	496	502	488	
7	0	0	0	0	496	499	505	
8	0	0	0	0	496	496	524	
9	0	0	0	0	496	492	536	
10	0	0	0	0	496	490	526	
11	0	0	0	0	498	489	537	
12	0	0	0	0	500	487	531	
13	0	0	0	0	503	487	502	
14	0	0	0	0	503	486	469	
15	0	0	0	0	503	484	425	
0	0	0	0	0	504	483	403	
1	0	0	0	0	505	480	388	
2	0	0	0	0	507	478	370	
3	0	0	0	0	505	475	364	
4	0	0	0	0	505	472	382	
5	0	0	0	0	504	468	385	
6	0	0	0	0	504	465	406	
7	0	0	0	0	505	463	414	
8	0	0	0	0	505	460	425	
9	0	0	0	0	506	457	451	
10	0	0	0	0	509	456	481	
11	0	0	0	0	511	455	488	
12	0	0	0	0	512	455	504	
13	0	0	0	0	513	456	510	
14	0	0	0	0	515	460	521	
15	0	0	0	0	516	463	518	
0	0	0	0	0	519	466	534	
1	0	0	0	0	519	469	536	
2	0	0	0	0	523	472	517	
3	0	0	0	0	523	474	537	
4	0	0	0	0	521	477	536	
5	0	0	0	0	520	480	535	
6	0	0	0	0	518	482	538	
7	0	0	0	0	516	485	530	
8	0	0	0	0	514	488	536	
9	0	0	0	0	512	491	522	
10	0	0	0	0	512	494	529	
11	0	0	0	0	510	496	535	
12	0	0	0	0	508	499	523	
13	0	0	0	0	510	503	530	
14	0	0	0	0	511	506	527	
15	0	0	0	0	511	509	529	
0	0	0	0	0	511	512	523	
1	0	0	0	0	512	515	521	
2	0	0	0	0	512	518	510	
3	0	0	0	0	511	520	514	
4	0	0	0	0	508	523	527	
5	0	0	0	0	506	525	537	
6	0	0	0	0	505	527	546	
7	0	0	0	0	505	530	551	
8	0	0	0	0	507	532	563	
9	0	0	0	0	509	536	562	
10	0	0	0	0	512	538	545	
11	0	0	0	0	514	540	516	
12	0	0	0	0	515	543	496	
13	0	0	0	0	517	544	487	
14	0	0	0	0	516	544	499	
15	0	0	0	0	515	545	483	
0	0	0	0	0	514	544	445	
1	0	0	0	0	513	544	528	
2	0	0	0	0	512	543	771	
3	0	0	0	0	508	544	1015	
4	0	0	0	0	507	544	951	
5	0	0	0	0	506	545	651	
6	0	0	0	0	504	544	428	
7	0	0	0	0	502	543	355	
8	0	0	0	0	502	543	368	
9	0	0	0	0	499	542	365	
10	0	0	0	0	498	541	363	
11	0	0	0	0	497	541	390	
12	0	0	0	0	497	543	396	
13	0	0	0	0	499	545	405	
14	0	0	0	0	499	546	431	
15	0	0	0	0	499	547	455	
0	0	0	0	0	499	547	466	
1	0	0	0	0	500	548	489	
2	0	0	0	0	500	547	487	
3	0	0	0	0	499	545	519	
4	0	0	0	0	499	542	531	
5	0	0	0	0	498	537	541	
6	0	0	0	0	499	532	572	
7	0	0	0	0	499	527	566	
8	0	0	0	0	499	522	604	
9	0	0	0	0	500	518	605	
10	0	0	0	0	503	514	604	
11	0	0	0	0	503	511	602	
12	0	0	0	0	503	508	587	
13	0	0	0	0	504	506	567	
14	0	0	0	0	504	503	527	
15	0	0	0	0	504	500	474	
0	0	0	0	0	504	497	458	
1	0	0	0	0	504	494	431	
2	0	0	0	0	506	491	427	
3	0	0	0	0	507	487	422	
4	0	0	0	0	510	484	415	
5	0	0	0	0	513	481	438	
6	0	0	0	0	514	478	438	
7	0	0	0	0	515	475	454	
8	0	0	0	0	516	472	451	
9	0	0	0	0	517	470	476	
10	0	0	0	0	519	468	478	
11	0	0	0	0	520	467	492	
12	0	0	0	0	519	468	489	
13	0	0	0	0	521	469	495	
14	0	0	0	0	520	471	496	
15	0	0	0	0	521	474	514	
0	0	0	0	0	522	476	521	
1	0	0	0	0	523	479	514	
2	0	0	0	0	524	480	513	
3	0	0	0	0	525	482	506	
4	0	0	0	0	524	485	524	
5	0	0	0	0	523	487	522	
6	0	0	0	0	523	490	513	
7	0	0	0	0	521	494	507	
8	0	0	0	0	520	497	512	
9	0	0	0	0	519	502	508	
10	0	0	0	0	519	506	514	
11	0	0	0	0	518	511	513	
12	0	0	0	0	518	516	515	
13	0	0	0	0	516	521	509	
14	0	0	0	0	516	526	529	
15	0	0	0	0	516	531	524	
0	0	0	0	0	514	536	523	
1	0	0	0	0	515	541	514	
2	0	0	0	0	516	546	520	
3	0	0	0	0	516	550	519	
4	0	0	0	0	515	554	515	
5	0	0	0	0	515	557	516	
6	0	0	0	0	515	560	519	
7	0	0	0	0	514	562	525	
8	0	0	0	0	514	564	526	
9	0	0	0	0	513	566	530	
10	0	0	0	0	512	568	551	
11	0	0	0	0	510	568	567	
12	0	0	0	0	510	570	552	
13	0	0	0	0	510	571	518	
14	0	0	0	0	509	573	502	
15	0	0	0	0	507	575	483	
0	0	0	0	0	507	576	491	
1	0	0	0	0	506	578	489	
2	0	0	0	0	506	579	485	
3	0	0	0	0	505	579	486	
4	0	0	0	0	504	580	654	
5	0	0	0	0	506	580	968	
6	0	0	0	0	507	582	1022	
7	0	0	0	0	508	584	770	
8	0	0	0	0	510	585	490	
9	0	0	0	0	510	586	360	
10	0	0	0	0	510	588	348	
11	0	0	0	0	509	591	350	
12	0	0	0	0	509	593	367	
13	0	0	0	0	510	595	389	
14	0	0	0	0	509	599	408	
15	0	0	0	0	506	602	422	
0	0	0	0	0	505	604	438	
1	0	0	0	0	504	606	455	
2	0	0	0	0	503	608	461	
3	0	0	0	0	503	609	469	
4	0	0	0	0	502	611	485	
5	0	0	0	0	500	612	500	
6	0	0	0	0	498	612	505	
7	0	0	0	0	494	611	526	
8	0	0	0	0	494	608	542	
9	0	0	0	0	493	605	553	
10	0	0	0	0	493	602	578	
11	0	0	0	0	493	598	584	
12	0	0	0	0	494	595	589	
13	0	0	0	0	494	592	587	
14	0	0	0	0	493	590	577	
15	0	0	0	0	492	588	554	
0	0	0	0	0	492	587	521	
1	0	0	0	0	496	587	475	
2	0	0	0	0	498	586	441	
3	0	0	0	0	501	586	424	
4	0	0	0	0	505	586	422	
5	0	0	0	0	511	585	427	
6	0	0	0	0	514	583	425	
7	0	0	0	0	516	581	433	
8	0	0	0	0	518	578	439	
9	0	0	0	0	519	574	446	
10	0	0	0	0	521	571	448	
11	0	0	0	0	523	568	460	
12	0	0	0	0	524	564	468	
13	0	0	0	0	526	561	476	
14	0	0	0	0	528	558	481	
15	0	0	0	0	529	555	495	
0	0	0	0	0	531	553	499	
1	0	0	0	0	531	551	505	
2	0	0	0	0	530	551	514	
3	0	0	0	0	528	549	519	
4	0	0	0	0	527	548	522	
5	0	0	0	0	525	546	521	
6	0	0	0	0	524	543	520	
7	0	0	0	0	522	540	525	
8	0	0	0	0	519	535	532	
9	0	0	0	0	518	529	524	
10	0	0	0	0	519	522	528	
11	0	0	0	0	520	515	529	
12	0	0	0	0	521	507	525	
13	0	0	0	0	523	498	520	
14	0	0	0	0	523	488	526	
15	0	0	0	0	524	478	531	
0	0	0	0	0	524	466	537	
1	0	0	0	0	526	452	532	
2	0	0	0	0	525	439	542	
3	0	0	0	0	523	425	526	
4	0	0	0	0	521	412	516	
5	0	0	0	0	521	399	518	
6	0	0	0	0	519	388	517	
7	0	0	0	0	518	378	512	
8	0	0	0	0	517	368	515	
9	0	0	0	0	516	359	508	
10	0	0	0	0	515	350	511	
11	0	0	0	0	513	341	509	
12	0	0	0	0	512	332	510	
13	0	0	0	0	512	326	506	
14	0	0	0	0	512	319	507	
15	0	0	0	0	512	312	512	
0	0	0	0	0	512	307	515	
1	0	0	0	0	512	303	516	
2	0	0	0	0	511	298	524	
3	0	0	0	0	509	295	534	
4	0	0	0	0	508	291	548	
5	0	0	0	0	508	288	565	
6	0	0	0	0	509	284	574	
7	0	0	0	0	509	282	554	
8	0	0	0	0	509	279	528	
9	0	0	0	0	509	276	516	
10	0	0	0	0	508	273	505	
11	0	0	0	0	507	270	500	
12	0	0	0	0	507	265	507	
13	0	0	0	0	506	262	483	
14	0	0	0	0	506	258	499	
15	0	0	0	0	505	252	658	
0	0	0	0	0	504	246	1021	
1	0	0	0	0	504	241	1022	
2	0	0	0	0	504	236	783	
3	0	0	0	0	504	232	478	
4	0	0	0	0	503	227	351	
5	0	0	0	0	504	224	351	
6	0	0	0	0	504	222	352	
7	0	0	0	0	504	221	355	
8	0	0	0	0	503	218	374	
9	0	0	0	0	503	215	401	
10	0	0	0	0	504	212	416	
11	0	0	0	0	503	209	440	
12	0	0	0	0	504	206	458	
13	0	0	0	0	504	203	480	
14	0	0	0	0	504	200	484	
15	0	0	0	0	502	196	495	
0	0	0	0	0	500	193	507	
1	0	0	0	0	500	190	518	
2	0	0	0	0	500	186	531	
3	0	0	0	0	498	180	542	
4	0	0	0	0	496	175	565	
5	0	0	0	0	495	169	576	
6	0	0	0	0	496	163	587	
7	0	0	0	0	494	157	594	
8	0	0	0	0	494	151	595	
9	0	0	0	0	495	146	589	
10	0	0	0	0	496	141	579	
11	0	0	0	0	497	137	535	
12	0	0	0	0	498	134	486	
13	0	0	0	0	500	129	446	
14	0	0	0	0	503	125	421	
15	0	0	0	0	503	121	402	
0	0	0	0	0	505	116	404	
1	0	0	0	0	508	112	410	
2	0	0	0	0	509	108	422	
3	0	0	0	0	510	105	428	
4	0	0	0	0	511	103	431	
5	0	0	0	0	511	103	441	
6	0	0	0	0	512	101	451	
7	0	0	0	0	515	98	460	
8	0	0	0	0	518	97	465	
9	0	0	0	0	519	97	470	
10	0	0	0	0	521	98	473	
11	0	0	0	0	524	99	472	
12	0	0	0	0	525	99	467	
13	0	0	0	0	526	100	486	
14	0	0	0	0	526	100	492	
15	0	0	0	0	526	100	481	
0	0	0	0	0	526	99	486	
1	0	0	0	0	525	96	486	
2	0	0	0	0	525	92	478	
3	0	0	0	0	525	88	488	
4	0	0	0	0	524	85	483	
5	0	0	0	0	523	82	475	
6	0	0	0	0	523	79	483	
7	0	0	0	0	522	76	480	
8	0	0	0	0	522	73	479	
9	0	0	0	0	520	70	482	
10	0	0	0	0	519	68	484	
11	0	0	0	0	518	66	493	
12	0	0	0	0	516	63	507	
13	0	0	0	0	516	61	516	
14	0	0	0	0	517	57	520	
15	0	0	0	0	513	54	519	
0	0	0	0	0	511	49	518	
1	0	0	0	0	511	46	515	
2	0	0	0	0	512	43	518	
3	0	0	0	0	511	41	512	
4	0	0	0	0	511	38	517	
5	0	0	0	0	511	35	517	
6	0	0	0	0	512	36	502	
7	0	0	0	0	512	35	517	
8	0	0	0	0	512	35	523	
9	0	0	0	0	512	34	520	
10	0	0	0	0	512	34	527	
11	0	0	0	0	511	35	529	
12	0	0	0	0	512	37	531	
13	0	0	0	0	512	39	527	
14	0	0	0	0	512	39	532	
15	0	0	0	0	510	40	555	
0	0	0	0	0	508	39	550	
1	0	0	0	0	507	39	556	
2	0	0	0	0	507	39	564	
3	0	0	0	0	505	39	555	
4	0	0	0	0	505	38	540	
5	0	0	0	0	505	35	512	
6	0	0	0	0	505	32	499	
7	0	0	0	0	505	31	482	
8	0	0	0	0	503	30	475	
9	0	0	0	0	503	29	468	
10	0	0	0	0	501	29	443	
11	0	0	0	0	501	31	510	
12	0	0	0	0	501	31	769	
13	0	0	0	0	501	30	1022	
14	0	0	0	0	499	29	1022	
15	0	0	0	0	497	27	662	
0	0	0	0	0	497	25	438	
1	0	0	0	0	498	23	364	
2	0	0	0	0	497	23	376	
3	0	0	0	0	496	23	366	
4	0	0	0	0	496	22	380	
5	0	0	0	0	498	21	399	
6	0	0	0	0	501	20	431	
7	0	0	0	0	502	20	438	
8	0	0	0	0	502	19	446	
9	0	0	0	0	501	18	452	
10	0	0	0	0	500	18	465	
11	0	0	0	0	501	17	475	
12	0	0	0	0	500	16	484	
13	0	0	0	0	500	15	475	
14	0	0	0	0	500	14	479	
15	0	0	0	0	499	13	476	
0	0	0	0	0	498	12	496	
1	0	0	0	0	497	9	499	
2	0	0	0	0	494	9	514	
3	0	0	0	0	493	11	523	
4	0	0	0	0	493	17	531	
5	0	0	0	0	493	25	529	
6	0	0	0	0	495	37	527	
7	0	0	0	0	496	51	464	
8	0	0	0	0	497	69	333	
9	0	0	0	0	498	88	190	
10	0	0	0	0	501	108	277	
11	0	0	0	0	503	129	423	
12	0	0	0	0	506	152	602	
13	0	0	0	0	507	175	713	
14	0	0	0	0	508	196	695	
15	0	0	0	0	512	218	619	
0	0	0	0	0	515	239	564	
1	0	0	0	0	516	261	491	
2	0	0	0	0	519	281	436	
3	0	0	0	0	519	300	403	
4	0	0	0	0	520	319	375	
5	0	0	0	0	521	339	345	
6	0	0	0	0	521	359	333	
7	0	0	0	0	522	380	352	
8	0	0	0	0	521	400	377	
9	0	0	0	0	523	421	383	
10	0	0	0	0	523	442	412	
11	0	0	0	0	522	461	476	
12	0	0	0	0	522	479	507	
13	0	0	0	0	521	496	515	
14	0	0	0	0	522	512	550	
15	0	0	0	0	521	527	546	
0	0	0	0	0	520	540	548	
1	0	0	0	0	521	552	527	
2	0	0	0	0	522	563	504	
3	0	0	0	0	523	574	488	
4	0	0	0	0	524	583	490	
5	0	0	0	0	523	591	481	
6	0	0	0	0	522	600	475	
7	0	0	0	0	521	607	474	
8	0	0	0	0	520	615	479	
9	0	0	0	0	519	622	488	
10	0	0	0	0	518	629	529	
11	0	0	0	0	518	636	543	
12	0	0	0	0	518	642	568	
13	0	0	0	0	518	648	583	
14	0	0	0	0	518	653	584	
15	0	0	0	0	516	657	595	
0	0	0	0	0	513	660	613	
1	0	0	0	0	514	663	620	
2	0	0	0	0	513	665	624	
3	0	0	0	0	513	667	609	
4	0	0	0	0	513	670	614	
5	0	0	0	0	512	672	612	
6	0	0	0	0	511	675	616	
7	0	0	0	0	510	677	608	
8	0	0	0	0	512	679	608	
9	0	0	0	0	512	681	606	
10	0	0	0	0	513	682	605	
11	0	0	0	0	512	683	594	
12	0	0	0	0	511	683	575	
13	0	0	0	0	510	682	551	
14	0	0	0	0	510	681	545	
15	0	0	0	0	509	679	549	
0	0	0	0	0	508	677	533	
1	0	0	0	0	508	674	527	
2	0	0	0	0	506	672	548	
3	0	0	0	0	504	669	544	
4	0	0	0	0	504	666	516	
5	0	0	0	0	504	663	494	
6	0	0	0	0	504	661	464	
7	0	0	0	0	504	658	455	
8	0	0	0	0	504	655	440	
9	0	0	0	0	503	652	424	
10	0	0	0	0	502	648	389	
11	0	0	0	0	500	644	494	
12	0	0	0	0	499	638	809	
13	0	0	0	0	499	632	1022	
14	0	0	0	0	500	625	847	
15	0	0	0	0	500	618	508	
0	0	0	0	0	500	609	352	
1	0	0	0	0	498	601	361	
2	0	0	0	0	499	593	402	
3	0	0	0	0	500	587	446	
4	0	0	0	0	499	580	478	
5	0	0	0	0	498	574	494	
6	0	0	0	0	496	569	490	
7	0	0	0	0	495	564	471	
8	0	0	0	0	494	559	469	
9	0	0	0	0	493	555	484	
10	0	0	0	0	493	550	515	
11	0	0	0	0	494	545	527	
12	0	0	0	0	496	539	534	
13	0	0	0	0	499	533	549	
14	0	0	0	0	501	527	570	
15	0	0	0	0	502	523	581	
0	0	0	0	0	500	519	614	
1	0	0	0	0	500	517	688	
2	0	0	0	0	499	514	730	
3	0	0	0	0	498	512	740	
4	0	0	0	0	499	509	743	
5	0	0	0	0	499	505	780	
6	0	0	0	0	498	501	813	
7	0	0	0	0	498	496	812	
8	0	0	0	0	499	490	758	
9	0	0	0	0	499	483	683	
10	0	0	0	0	499	477	589	
11	0	0	0	0	500	470	514	
12	0	0	0	0	502	465	438	
13	0	0	0	0	505	461	384	
14	0	0	0	0	506	459	346	
15	0	0	0	0	507	458	314	
0	0	0	0	0	510	459	296	
1	0	0	0	0	511	460	290	
2	0	0	0	0	510	462	298	
3	0	0	0	0	512	464	294	
4	0	0	0	0	515	468	289	
5	0	0	0	0	516	472	287	
6	0	0	0	0	518	477	288	
7	0	0	0	0	520	480	288	
8	0	0	0	0	522	483	304	
9	0	0	0	0	522	486	314	
10	0	0	0	0	522	488	327	
11	0	0	0	0	524	489	340	
12	0	0	0	0	524	490	369	
13	0	0	0	0	525	490	387	
14	0	0	0	0	526	488	396	
15	0	0	0	0	524	487	405	
0	0	0	0	0	524	484	414	
1	0	0	0	0	523	481	428	
2	0	0	0	0	523	479	456	
3	0	0	0	0	522	477	465	
4	0	0	0	0	520	475	488	
5	0	0	0	0	519	475	481	
6	0	0	0	0	515	474	512	
7	0	0	0	0	511	473	516	
8	0	0	0	0	510	473	529	
9	0	0	0	0	508	472	534	
10	0	0	0	0	506	471	556	
11	0	0	0	0	505	469	553	
12	0	0	0	0	505	467	556	
13	0	0	0	0	508	465	559	
14	0	0	0	0	509	463	547	
15	0	0	0	0	511	461	534	
0	0	0	0	0	512	459	527	
1	0	0	0	0	513	458	529	
2	0	0	0	0	514	457	536	
3	0	0	0	0	516	456	541	
4	0	0	0	0	516	456	544	
5	0	0	0	0	516	456	557	
6	0	0	0	0	515	456	560	
7	0	0	0	0	514	457	565	
8	0	0	0	0	513	458	579	
9	0	0	0	0	512	459	572	
10	0	0	0	0	510	459	571	
11	0	0	0	0	508	459	568	
12	0	0	0	0	508	458	549	
13	0	0	0	0	506	456	514	
14	0	0	0	0	505	454	472	
15	0	0	0	0	504	451	469	
0	0	0	0	0	504	447	466	
1	0	0	0	0	504	442	473	
2	0	0	0	0	507	436	480	
3	0	0	0	0	509	429	449	
4	0	0	0	0	510	421	543	
5	0	0	0	0	510	412	841	
6	0	0	0	0	509	403	1022	
7	0	0	0	0	508	393	994	
8	0	0	0	0	507	384	639	
9	0	0	0	0	502	373	444	
10	0	0	0	0	501	362	379	
11	0	0	0	0	499	352	380	
12	0	0	0	0	496	343	387	
13	0	0	0	0	496	334	386	
14	0	0	0	0	497	325	409	
15	0	0	0	0	496	315	422	
0	0	0	0	0	495	306	445	
1	0	0	0	0	495	296	453	
2	0	0	0	0	495	286	459	
3	0	0	0	0	495	275	469	
4	0	0	0	0	497	265	480	
5	0	0	0	0	500	255	485	
6	0	0	0	0	502	246	499	
7	0	0	0	0	502	235	486	
8	0	0	0	0	504	226	503	
9	0	0	0	0	504	216	536	
10	0	0	0	0	502	207	551	
11	0	0	0	0	502	199	548	
12	0	0	0	0	502	190	556	
13	0	0	0	0	500	182	560	
14	0	0	0	0	499	176	561	
15	0	0	0	0	499	170	549	
0	0	0	0	0	498	166	527	
1	0	0	0	0	497	164	484	
2	0	0	0	0	496	163	435	
3	0	0	0	0	498	162	411	
4	0	0	0	0	501	162	392	
5	0	0	0	0	503	163	381	
6	0	0	0	0	505	163	387	
7	0	0	0	0	508	163	393	
8	0	0	0	0	511	165	394	
9	0	0	0	0	515	166	410	
10	0	0	0	0	518	170	428	
11	0	0	0	0	519	174	435	
12	0	0	0	0	521	179	456	
13	0	0	0	0	521	183	452	
14	0	0	0	0	523	188	460	
15	0	0	0	0	524	195	473	
0	0	0	0	0	526	201	486	
1	0	0	0	0	527	209	499	
2	0	0	0	0	528	218	503	
3	0	0	0	0	528	227	506	
4	0	0	0	0	528	237	496	
5	0	0	0	0	528	246	519	
6	0	0	0	0	527	255	521	
7	0	0	0	0	526	265	523	
8	0	0	0	0	525	273	528	
9	0	0	0	0	523	281	533	
10	0	0	0	0	521	290	524	
11	0	0	0	0	521	297	527	
12	0	0	0	0	521	304	528	
13	0	0	0	0	519	312	538	
14	0	0	0	0	518	319	529	
15	0	0	0	0	516	327	542	
0	0	0	0	0	515	334	543	
1	0	0	0	0	515	340	539	
2	0	0	0	0	517	347	543	
3	0	0	0	0	519	353	542	
4	0	0	0	0	519	359	544	
5	0	0	0	0	519	365	539	
6	0	0	0	0	519	371	545	
7	0	0	0	0	519	376	527	
8	0	0	0	0	517	382	539	
9	0	0	0	0	515	388	525	
10	0	0	0	0	516	393	512	
11	0	0	0	0	518	399	524	
12	0	0	0	0	515	404	521	
13	0	0	0	0	514	410	521	
14	0	0	0	0	515	416	527	
15	0	0	0	0	515	422	529	
0	0	0	0	0	514	428	524	
1	0	0	0	0	513	433	555	
2	0	0	0	0	514	439	567	
3	0	0	0	0	512	444	550	
4	0	0	0	0	510	449	521	
5	0	0	0	0	510	454	486	
6	0	0	0	0	511	459	489	
7	0	0	0	0	510	463	489	
8	0	0	0	0	508	468	484	
9	0	0	0	0	507	472	474	
10	0	0	0	0	506	476	476	
11	0	0	0	0	506	479	639	
12	0	0	0	0	506	482	954	
13	0	0	0	0	505	485	1022	
14	0	0	0	0	504	488	775	
15	0	0	0	0	505	492	494	
0	0	0	0	0	505	495	366	
1	0	0	0	0	504	497	348	
2	0	0	0	0	505	499	360	
3	0	0	0	0	504	501	373	
4	0	0	0	0	503	502	379	
5	0	0	0	0	503	504	387	
6	0	0	0	0	502	507	408	
7	0	0	0	0	502	510	414	
8	0	0	0	0	503	512	426	
9	0	0	0	0	502	513	440	
10	0	0	0	0	501	515	462	
11	0	0	0	0	502	516	467	
12	0	0	0	0	502	517	481	
13	0	0	0	0	502	515	490	
14	0	0	0	0	502	511	498	
15	0	0	0	0	500	505	523	
0	0	0	0	0	500	497	551	
1	0	0	0	0	499	489	562	
2	0	0	0	0	499	482	576	
3	0	0	0	0	499	475	585	
4	0	0	0	0	498	469	582	
5	0	0	0	0	499	465	587	
6	0	0	0	0	500	462	568	
7	0	0	0	0	500	460	540	
8	0	0	0	0	503	458	494	
9	0	0	0	0	503	457	456	
10	0	0	0	0	504	455	429	
11	0	0	0	0	505	454	421	
12	0	0	0	0	507	453	416	
13	0	0	0	0	507	451	414	
14	0	0	0	0	510	451	431	
15	0	0	0	0	509	450	430	
0	0	0	0	0	509	450	446	
1	0	0	0	0	510	450	458	
2	0	0	0	0	512	452	472	
3	0	0	0	0	513	454	475	
4	0	0	0	0	515	456	488	
5	0	0	0	0	515	459	491	
6	0	0	0	0	517	463	496	
7	0	0	0	0	519	467	509	
8	0	0	0	0	523	472	507	
9	0	0	0	0	524	477	508	
10	0	0	0	0	525	482	521	
11	0	0	0	0	526	487	513	
12	0	0	0	0	527	491	522	
13	0	0	0	0	526	495	528	
14	0	0	0	0	526	498	528	
15	0	0	0	0	526	502	519	
0	0	0	0	0	525	506	519	
1	0	0	0	0	523	510	515	
2	0	0	0	0	520	514	508	
3	0	0	0	0	518	519	495	
4	0	0	0	0	517	523	504	
5	0	0	0	0	516	527	503	
6	0	0	0	0	517	530	504	
7	0	0	0	0	519	534	505	
8	0	0	0	0	518	538	509	
9	0	0	0	0	519	542	509	
10	0	0	0	0	521	545	514	
11	0	0	0	0	520	548	515	
12	0	0	0	0	519	551	515	
13	0	0	0	0	519	555	513	
14	0	0	0	0	516	558	514	
15	0	0	0	0	515	561	518	
0	0	0	0	0	514	565	523	
1	0	0	0	0	514	568	524	
2	0	0	0	0	512	570	529	
3	0	0	0	0	511	572	527	
4	0	0	0	0	510	573	532	
5	0	0	0	0	508	574	532	
6	0	0	0	0	507	574	567	
7	0	0	0	0	508	574	568	
8	0	0	0	0	506	574	542	
9	0	0	0	0	508	574	521	
10	0	0	0	0	508	574	500	
11	0	0	0	0	510	574	488	
12	0	0	0	0	510	573	504	
13	0	0	0	0	510	572	493	
14	0	0	0	0	510	572	460	
15	0	0	0	0	511	570	513	
0	0	0	0	0	510	569	741	
1	0	0	0	0	508	568	996	
2	0	0	0	0	508	568	975	
3	0	0	0	0	508	567	696	
4	0	0	0	0	507	566	467	
5	0	0	0	0	505	563	361	
6	0	0	0	0	504	561	352	
7	0	0	0	0	503	559	364	
8	0	0	0	0	500	557	390	
9	0	0	0	0	500	556	397	
10	0	0	0	0	500	557	399	
11	0	0	0	0	499	559	416	
12	0	0	0	0	499	559	421	
13	0	0	0	0	496	558	440	
14	0	0	0	0	496	556	463	
15	0	0	0	0	497	555	483	
0	0	0	0	0	498	553	492	
1	0	0	0	0	498	551	498	
2	0	0	0	0	498	547	510	
3	0	0	0	0	498	542	513	
4	0	0	0	0	499	535	540	
5	0	0	0	0	499	527	560	
6	0	0	0	0	496	520	578	
7	0	0	0	0	496	513	592	
8	0	0	0	0	496	507	592	
9	0	0	0	0	495	502	600	
10	0	0	0	0	494	499	594	
11	0	0	0	0	495	496	574	
12	0	0	0	0	497	494	540	
13	0	0	0	0	498	492	486	
14	0	0	0	0	500	490	453	
15	0	0	0	0	501	488	430	
0	0	0	0	0	502	487	415	
1	0	0	0	0	502	485	424	
2	0	0	0	0	504	483	425	
3	0	0	0	0	508	481	430	
4	0	0	0	0	510	479	443	
5	0	0	0	0	508	478	449	
6	0	0	0	0	510	476	458	
7	0	0	0	0	512	474	468	
8	0	0	0	0	515	473	472	
9	0	0	0	0	517	472	480	
10	0	0	0	0	518	472	486	
11	0	0	0	0	520	473	491	
12	0	0	0	0	523	475	487	
13	0	0	0	0	525	478	504	
14	0	0	0	0	526	480	507	
15	0	0	0	0	528	483	504	
0	0	0	0	0	527	486	510	
1	0	0	0	0	526	487	508	
2	0	0	0	0	524	490	512	
3	0	0	0	0	522	494	507	
4	0	0	0	0	519	497	506	
5	0	0	0	0	518	501	507	
6	0	0	0	0	517	505	508	
7	0	0	0	0	515	511	512	
8	0	0	0	0	513	516	497	
9	0	0	0	0	511	522	514	
10	0	0	0	0	510	528	505	
11	0	0	0	0	509	534	506	
12	0	0	0	0	509	539	513	
13	0	0	0	0	507	543	505	
14	0	0	0	0	509	548	507	
15	0	0	0	0	511	552	516	
0	0	0	0	0	511	556	513	
1	0	0	0	0	513	559	517	
2	0	0	0	0	514	563	517	
3	0	0	0	0	514	566	519	
4	0	0	0	0	513	569	518	
5	0	0	0	0	510	571	511	
6	0	0	0	0	510	574	512	
7	0	0	0	0	508	576	525	
8	0	0	0	0	505	577	524	
9	0	0	0	0	505	579	530	
10	0	0	0	0	505	581	542	
11	0	0	0	0	505	582	563	
12	0	0	0	0	506	583	553	
13	0	0	0	0	507	584	530	
14	0	0	0	0	508	587	503	
15	0	0	0	0	510	588	498	
0	0	0	0	0	509	591	500	
1	0	0	0	0	508	593	493	
2	0	0	0	0	508	595	500	
3	0	0	0	0	507	597	479	
4	0	0	0	0	506	599	594	
5	0	0	0	0	505	601	900	
6	0	0	0	0	505	603	1022	
7	0	0	0	0	505	606	870	
8	0	0	0	0	503	608	574	
9	0	0	0	0	504	609	404	
10	0	0	0	0	503	609	359	
11	0	0	0	0	501	610	367	
12	0	0	0	0	500	611	379	
13	0	0	0	0	500	612	390	
14	0	0	0	0	499	613	402	
15	0	0	0	0	498	616	415	
0	0	0	0	0	499	619	429	
1	0	0	0	0	498	621	448	
2	0	0	0	0	497	622	476	
3	0	0	0	0	496	623	495	
4	0	0	0	0	495	623	495	
5	0	0	0	0	494	622	514	
6	0	0	0	0	493	621	534	
7	0	0	0	0	493	619	539	
8	0	0	0	0	496	615	557	
9	0	0	0	0	496	611	571	
10	0	0	0	0	497	605	584	
11	0	0	0	0	496	600	600	
12	0	0	0	0	497	594	611	
13	0	0	0	0	499	589	605	
14	0	0	0	0	500	583	596	
15	0	0	0	0	500	579	576	
0	0	0	0	0	500	575	549	
1	0	0	0	0	501	571	502	
2	0	0	0	0	501	566	455	
3	0	0	0	0	503	562	431	
4	0	0	0	0	505	558	414	
5	0	0	0	0	507	553	406	
6	0	0	0	0	510	548	408	
7	0	0	0	0	511	544	417	
8	0	0	0	0	512	540	422	
9	0	0	0	0	512	536	430	
10	0	0	0	0	511	532	437	
11	0	0	0	0	513	528	444	
12	0	0	0	0	516	524	451	
13	0	0	0	0	515	521	454	
14	0	0	0	0	515	518	466	
15	0	0	0	0	515	515	472	
0	0	0	0	0	515	513	472	
1	0	0	0	0	516	513	480	
2	0	0	0	0	517	515	497	
3	0	0	0	0	518	518	498	
4	0	0	0	0	520	521	505	
5	0	0	0	0	522	523	509	
6	0	0	0	0	521	524	508	
7	0	0	0	0	520	524	515	
8	0	0	0	0	519	523	516	
9	0	0	0	0	516	521	515	
10	0	0	0	0	514	520	510	
11	0	0	0	0	514	519	519	
12	0	0	0	0	514	518	520	
13	0	0	0	0	514	519	515	
14	0	0	0	0	513	519	519	
15	0	0	0	0	511	519	522	
0	0	0	0	0	511	520	523	
1	0	0	0	0	511	520	520	
2	0	0	0	0	511	521	526	
3	0	0	0	0	511	520	520	
4	0	0	0	0	510	520	522	
5	0	0	0	0	509	519	519	
6	0	0	0	0	510	519	509	
7	0	0	0	0	511	518	508	
8	0	0	0	0	512	517	512	
9	0	0	0	0	512	516	518	
10	0	0	0	0	514	515	516	
11	0	0	0	0	515	513	509	
12	0	0	0	0	514	512	515	
13	0	0	0	0	512	511	512	
14	0	0	0	0	511	510	512	
15	0	0	0	0	511	509	521	
0	0	0	0	0	511	508	522	
1	0	0	0	0	509	506	518	
2	0	0	0	0	508	504	512	
3	0	0	0	0	506	502	518	
4	0	0	0	0	505	499	523	
5	0	0	0	0	505	496	534	
6	0	0	0	0	506	493	526	
7	0	0	0	0	507	489	544	
8	0	0	0	0	507	484	567	
9	0	0	0	0	505	479	561	
10	0	0	0	0	505	474	540	
11	0	0	0	0	506	469	514	
12	0	0	0	0	505	463	502	
13	0	0	0	0	506	458	497	
14	0	0	0	0	505	453	496	
15	0	0	0	0	504	449	493	
0	0	0	0	0	503	445	471	
1	0	0	0	0	503	440	524	
2	0	0	0	0	503	436	768	
3	0	0	0	0	505	432	1022	
4	0	0	0	0	504	428	1022	
5	0	0	0	0	503	423	657	
6	0	0	0	0	502	419	418	
7	0	0	0	0	500	414	341	
8	0	0	0	0	499	411	340	
9	0	0	0	0	497	408	345	
10	0	0	0	0	495	405	354	
11	0	0	0	0	495	402	376	
12	0	0	0	0	495	398	395	
13	0	0	0	0	496	394	408	
14	0	0	0	0	497	390	422	
15	0	0	0	0	497	385	436	
0	0	0	0	0	497	380	454	
1	0	0	0	0	497	375	460	
2	0	0	0	0	496	371	476	
3	0	0	0	0	496	366	486	
4	0	0	0	0	495	359	500	
5	0	0	0	0	495	352	517	
6	0	0	0	0	494	345	534	
7	0	0	0	0	491	336	551	
8	0	0	0	0	491	327	575	
9	0	0	0	0	489	317	583	
10	0	0	0	0	487	306	595	
11	0	0	0	0	489	296	596	
12	0	0	0	0	489	286	594	
13	0	0	0	0	491	277	573	
14	0	0	0	0	495	268	540	
15	0	0	0	0	497	259	491	
0	0	0	0	0	502	250	453	
1	0	0	0	0	505	242	429	
2	0	0	0	0	511	234	408	
3	0	0	0	0	513	227	406	
4	0	0	0	0	515	219	415	
5	0	0	0	0	516	212	418	
6	0	0	0	0	518	204	426	
7	0	0	0	0	519	196	438	
8	0	0	0	0	519	191	445	
9	0	0	0	0	518	185	465	
10	0	0	0	0	518	178	461	
11	0	0	0	0	517	173	472	
12	0	0	0	0	518	169	480	
13	0	0	0	0	519	166	484	
14	0	0	0	0	519	163	488	
15	0	0	0	0	519	161	500	
0	0	0	0	0	519	159	502	
1	0	0	0	0	523	158	513	
2	0	0	0	0	527	156	504	
3	0	0	0	0	529	155	524	
4	0	0	0	0	530	153	530	
5	0	0	0	0	530	150	534	
6	0	0	0	0	528	148	529	
7	0	0	0	0	526	146	531	
8	0	0	0	0	525	145	534	
9	0	0	0	0	523	144	532	
10	0	0	0	0	521	143	549	
11	0	0	0	0	521	143	550	
12	0	0	0	0	520	143	543	
13	0	0	0	0	518	142	540	
14	0	0	0	0	517	142	554	
15	0	0	0	0	515	141	537	
0	0	0	0	0	515	142	538	
1	0	0	0	0	516	145	519	
2	0	0	0	0	515	149	529	
3	0	0	0	0	515	154	516	
4	0	0	0	0	515	162	508	
5	0	0	0	0	515	170	509	
6	0	0	0	0	515	178	497	
7	0	0	0	0	515	184	500	
8	0	0	0	0	513	189	502	
9	0	0	0	0	512	193	512	
10	0	0	0	0	513	197	527	
11	0	0	0	0	513	201	531	
12	0	0	0	0	512	205	507	
13	0	0	0	0	513	208	540	
14	0	0	0	0	513	211	527	
15	0	0	0	0	512	214	527	
0	0	0	0	0	511	217	517	
1	0	0	0	0	510	218	511	
2	0	0	0	0	509	221	515	
3	0	0	0	0	508	221	507	
4	0	0	0	0	508	223	513	
5	0	0	0	0	508	223	515	
6	0	0	0	0	511	223	519	
7	0	0	0	0	511	223	518	
8	0	0	0	0	509	222	517	
9	0	0	0	0	507	222	525	
10	0	0	0	0	506	221	536	
11	0	0	0	0	505	220	524	
12	0	0	0	0	504	218	549	
13	0	0	0	0	503	218	527	
14	0	0	0	0	500	217	519	
15	0	0	0	0	499	217	519	
0	0	0	0	0	495	216	499	
1	0	0	0	0	492	215	495	
2	0	0	0	0	492	214	498	
3	0	0	0	0	492	213	482	
4	0	0	0	0	493	211	490	
5	0	0	0	0	493	209	656	
6	0	0	0	0	494	208	999	
7	0	0	0	0	494	204	1022	
8	0	0	0	0	496	202	800	
9	0	0	0	0	499	199	490	
10	0	0	0	0	500	193	358	
11	0	0	0	0	500	188	342	
12	0	0	0	0	500	183	344	
13	0	0	0	0	501	180	352	
14	0	0	0	0	502	174	366	
15	0	0	0	0	504	168	387	
0	0	0	0	0	506	159	408	
1	0	0	0	0	506	150	427	
2	0	0	0	0	506	141	444	
3	0	0	0	0	504	133	451	
4	0	0	0	0	502	124	466	
5	0	0	0	0	499	116	473	
6	0	0	0	0	497	108	488	
7	0	0	0	0	497	100	500	
8	0	0	0	0	495	94	516	
9	0	0	0	0	494	88	533	
10	0	0	0	0	492	83	547	
11	0	0	0	0	492	77	554	
12	0	0	0	0	492	71	568	
13	0	0	0	0	492	67	580	
14	0	0	0	0	491	63	583	
15	0	0	0	0	493	58	576	
0	0	0	0	0	495	54	572	
1	0	0	0	0	498	52	542	
2	0	0	0	0	497	51	495	
3	0	0	0	0	499	50	450	
4	0	0	0	0	501	48	417	
5	0	0	0	0	502	47	395	
6	0	0	0	0	505	45	386	
7	0	0	0	0	508	42	387	
8	0	0	0	0	510	41	397	
9	0	0	0	0	513	41	406	
10	0	0	0	0	516	41	412	
11	0	0	0	0	519	41	428	
12	0	0	0	0	519	43	437	
13	0	0	0	0	519	46	448	
14	0	0	0	0	519	46	451	
15	0	0	0	0	521	51	460	
0	0	0	0	0	521	54	470	
1	0	0	0	0	522	57	484	
2	0	0	0	0	523	61	491	
3	0	0	0	0	525	63	491	
4	0	0	0	0	526	67	501	
5	0	0	0	0	527	71	500	
6	0	0	0	0	528	76	506	
7	0	0	0	0	529	78	504	
8	0	0	0	0	528	81	505	
9	0	0	0	0	528	83	504	
10	0	0	0	0	529	86	504	
11	0	0	0	0	527	86	504	
12	0	0	0	0	526	90	509	
13	0	0	0	0	523	92	505	
14	0	0	0	0	521	95	508	
15	0	0	0	0	517	98	518	
0	0	0	0	0	516	98	506	
1	0	0	0	0	516	102	512	
2	0	0	0	0	515	105	511	
3	0	0	0	0	514	107	512	
4	0	0	0	0	513	109	517	
5	0	0	0	0	512	112	519	
6	0	0	0	0	510	115	512	
7	0	0	0	0	510	116	505	
8	0	0	0	0	508	119	512	
9	0	0	0	0	511	121	510	
10	0	0	0	0	513	124	511	
11	0	0	0	0	514	127	503	
12	0	0	0	0	516	131	526	
13	0	0	0	0	516	136	508	
14	0	0	0	0	518	144	513	
15	0	0	0	0	520	151	511	
0	0	0	0	0	520	160	499	
1	0	0	0	0	519	169	512	
2	0	0	0	0	519	177	495	
3	0	0	0	0	516	184	499	
4	0	0	0	0	515	191	521	
5	0	0	0	0	513	196	511	
6	0	0	0	0	513	201	506	
7	0	0	0	0	509	206	509	
8	0	0	0	0	509	210	507	
9	0	0	0	0	507	213	506	
10	0	0	0	0	504	218	499	
11	0	0	0	0	502	221	521	
12	0	0	0	0	501	225	511	
13	0	0	0	0	500	229	522	
14	0	0	0	0	501	232	519	
15	0	0	0	0	500	236	517	
0	0	0	0	0	499	238	529	
1	0	0	0	0	498	240	510	
2	0	0	0	0	497	243	541	
3	0	0	0	0	498	246	527	
4	0	0	0	0	498	248	516	
5	0	0	0	0	498	251	520	
6	0	0	0	0	499	252	500	
7	0	0	0	0	500	253	474	
8	0	0	0	0	502	255	501	
9	0	0	0	0	504	257	479	
10	0	0	0	0	504	259	489	
11	0	0	0	0	507	262	657	
12	0	0	0	0	508	264	999	
13	0	0	0	0	508	268	1022	
14	0	0	0	0	507	270	770	
15	0	0	0	0	508	272	489	
0	0	0	0	0	506	275	358	
1	0	0	0	0	505	278	347	
2	0	0	0	0	503	281	352	
3	0	0	0	0	501	285	353	
4	0	0	0	0	500	288	372	
5	0	0	0	0	496	290	392	
6	0	0	0	0	494	293	410	
7	0	0	0	0	493	294	424	
8	0	0	0	0	494	295	425	
9	0	0	0	0	493	297	459	
10	0	0	0	0	494	299	477	
11	0	0	0	0	494	300	487	
12	0	0	0	0	495	302	487	
13	0	0	0	0	495	303	515	
14	0	0	0	0	493	304	524	
15	0	0	0	0	492	304	533	
0	0	0	0	0	492	303	537	
1	0	0	0	0	492	300	578	
2	0	0	0	0	493	298	589	
3	0	0	0	0	495	295	601	
4	0	0	0	0	496	294	612	
5	0	0	0	0	496	292	593	
6	0	0	0	0	497	291	576	
7	0	0	0	0	498	290	578	
8	0	0	0	0	500	288	530	
9	0	0	0	0	503	287	481	
10	0	0	0	0	504	285	441	
11	0	0	0	0	504	284	423	
12	0	0	0	0	506	281	413	
13	0	0	0	0	509	280	415	
14	0	0	0	0	508	277	428	
15	0	0	0	0	510	275	425	
0	0	0	0	0	511	273	444	
1	0	0	0	0	511	270	468	
2	0	0	0	0	510	267	474	
3	0	0	0	0	510	264	484	
4	0	0	0	0	510	262	489	
5	0	0	0	0	511	260	495	
6	0	0	0	0	513	258	497	
7	0	0	0	0	515	257	510	
8	0	0	0	0	515	255	512	
9	0	0	0	0	516	255	510	
10	0	0	0	0	518	254	518	
11	0	0	0	0	519	251	531	
12	0	0	0	0	519	249	523	
13	0	0	0	0	520	248	519	
14	0	0	0	0	523	244	516	
15	0	0	0	0	522	242	513	
0	0	0	0	0	524	240	518	
1	0	0	0	0	524	236	519	
2	0	0	0	0	524	233	516	
3	0	0	0	0	523	231	520	
4	0	0	0	0	523	227	518	
5	0	0	0	0	521	224	512	
6	0	0	0	0	519	221	516	
7	0	0	0	0	518	217	517	
8	0	0	0	0	516	215	518	
9	0	0	0	0	514	213	513	
10	0	0	0	0	512	212	515	
11	0	0	0	0	511	209	517	
12	0	0	0	0	512	208	515	
13	0	0	0	0	511	208	509	
14	0	0	0	0	512	208	513	
15	0	0	0	0	512	208	512	
0	0	0	0	0	512	208	512	
1	0	0	0	0	512	207	505	
2	0	0	0	0	513	209	504	
3	0	0	0	0	512	210	499	
4	0	0	0	0	513	212	500	
5	0	0	0	0	513	215	505	
6	0	0	0	0	513	219	506	
7	0	0	0	0	513	222	506	
8	0	0	0	0	514	225	507	
9	0	0	0	0	514	227	506	
10	0	0	0	0	513	231	509	
11	0	0	0	0	512	232	513	
12	0	0	0	0	513	234	518	
13	0	0	0	0	512	237	513	
14	0	0	0	0	509	239	525	
15	0	0	0	0	505	241	521	
0	0	0	0	0	503	244	522	
1	0	0	0	0	501	246	520	
2	0	0	0	0	499	248	524	
3	0	0	0	0	499	250	523	
4	0	0	0	0	499	252	517	
5	0	0	0	0	500	253	529	
6	0	0	0	0	498	255	536	
7	0	0	0	0	496	257	526	
8	0	0	0	0	495	258	551	
9	0	0	0	0	497	259	539	
10	0	0	0	0	499	261	531	
11	0	0	0	0	501	262	530	
12	0	0	0	0	502	262	517	
13	0	0	0	0	503	263	514	
14	0	0	0	0	503	263	512	
15	0	0	0	0	502	263	480	
0	0	0	0	0	501	264	537	
1	0	0	0	0	501	265	790	
2	0	0	0	0	501	267	1022	
3	0	0	0	0	500	269	1021	
4	0	0	0	0	500	271	647	
5	0	0	0	0	498	271	432	
6	0	0	0	0	497	271	346	
7	0	0	0	0	497	272	346	
8	0	0	0	0	499	274	344	
9	0	0	0	0	500	276	348	
10	0	0	0	0	499	278	365	
11	0	0	0	0	500	280	374	
12	0	0	0	0	499	283	407	
13	0	0	0	0	499	286	410	
14	0	0	0	0	499	289	415	
15	0	0	0	0	499	294	437	
0	0	0	0	0	497	299	454	
1	0	0	0	0	497	304	465	
2	0	0	0	0	496	309	481	
3	0	0	0	0	494	313	514	
4	0	0	0	0	493	316	547	
5	0	0	0	0	494	318	549	
6	0	0	0	0	495	319	572	
7	0	0	0	0	494	320	584	
8	0	0	0	0	494	321	599	
9	0	0	0	0	492	323	600	
10	0	0	0	0	491	323	599	
11	0	0	0	0	489	325	599	
12	0	0	0	0	488	327	589	
13	0	0	0	0	487	329	564	
14	0	0	0	0	488	332	518	
15	0	0	0	0	489	335	476	
0	0	0	0	0	492	338	438	
1	0	0	0	0	495	340	420	
2	0	0	0	0	501	342	408	
3	0	0	0	0	504	344	403	
4	0	0	0	0	508	347	408	
5	0	0	0	0	511	349	419	
6	0	0	0	0	513	351	419	
7	0	0	0	0	513	352	438	
8	0	0	0	0	514	354	450	
9	0	0	0	0	515	357	452	
10	0	0	0	0	515	359	459	
11	0	0	0	0	516	362	469	
12	0	0	0	0	515	365	479	
13	0	0	0	0	514	368	486	
14	0	0	0	0	515	372	492	
15	0	0	0	0	515	375	499	
0	0	0	0	0	515	378	513	
1	0	0	0	0	515	380	516	
2	0	0	0	0	515	383	513	
3	0	0	0	0	514	385	513	
4	0	0	0	0	513	387	518	
5	0	0	0	0	512	390	514	
6	0	0	0	0	512	392	496	
7	0	0	0	0	511	395	499	
8	0	0	0	0	510	396	507	
9	0	0	0	0	510	399	512	
10	0	0	0	0	510	401	510	
11	0	0	0	0	508	403	507	
12	0	0	0	0	507	406	504	
13	0	0	0	0	505	409	499	
14	0	0	0	0	505	412	500	
15	0	0	0	0	503	415	503	
0	0	0	0	0	500	419	498	
1	0	0	0	0	498	423	504	
2	0	0	0	0	495	426	500	
3	0	0	0	0	492	428	495	
4	0	0	0	0	487	430	486	
5	0	0	0	0	481	431	506	
6	0	0	0	0	478	432	499	
7	0	0	0	0	472	433	488	
8	0	0	0	0	465	433	491	
9	0	0	0	0	460	433	488	
10	0	0	0	0	454	435	490	
11	0	0	0	0	448	436	492	
12	0	0	0	0	444	438	468	
13	0	0	0	0	441	441	463	
14	0	0	0	0	440	444	481	
15	0	0	0	0	438	448	475	
0	0	0	0	0	437	453	472	
1	0	0	0	0	438	460	454	
2	0	0	0	0	441	470	474	
3	0	0	0	0	445	484	468	
4	0	0	0	0	450	499	471	
5	0	0	0	0	456	515	440	
6	0	0	0	0	464	534	449	
7	0	0	0	0	471	552	471	
8	0	0	0	0	476	573	491	
9	0	0	0	0	482	593	508	
10	0	0	0	0	487	615	521	
11	0	0	0	0	489	637	513	
12	0	0	0	0	492	658	536	
13	0	0	0	0	494	679	526	
14	0	0	0	0	494	700	514	
15	0	0	0	0	493	718	506	
0	0	0	0	0	494	736	517	
1	0	0	0	0	492	752	519	
2	0	0	0	0	490	767	502	
3	0	0	0	0	489	781	602	
4	0	0	0	0	487	795	905	
5	0	0	0	0	487	808	1023	
6	0	0	0	0	487	821	979	
7	0	0	0	0	487	833	643	
8	0	0	0	0	485	843	478	
9	0	0	0	0	485	852	406	
10	0	0	0	0	488	861	399	
11	0	0	0	0	496	868	420	
12	0	0	0	0	504	876	432	
13	0	0	0	0	512	882	435	
14	0	0	0	0	521	888	435	
15	0	0	0	0	528	893	460	
0	0	0	0	0	532	896	485	
1	0	0	0	0	532	899	506	
2	0	0	0	0	530	901	516	
3	0	0	0	0	526	901	516	
4	0	0	0	0	523	902	520	
5	0	0	0	0	518	900	530	
6	0	0	0	0	515	899	546	
7	0	0	0	0	510	894	568	
8	0	0	0	0	505	890	572	
9	0	0	0	0	502	883	580	
10	0	0	0	0	501	875	606	
11	0	0	0	0	497	867	624	
12	0	0	0	0	496	858	613	
13	0	0	0	0	494	849	606	
14	0	0	0	0	496	841	605	
15	0	0	0	0	496	832	581	
0	0	0	0	0	497	824	558	
1	0	0	0	0	496	815	507	
2	0	0	0	0	494	806	462	
3	0	0	0	0	494	797	420	
4	0	0	0	0	494	788	414	
5	0	0	0	0	494	779	411	
6	0	0	0	0	497	770	422	
7	0	0	0	0	499	761	417	
8	0	0	0	0	498	752	426	
9	0	0	0	0	499	743	449	
10	0	0	0	0	501	735	449	
11	0	0	0	0	504	726	461	
12	0	0	0	0	506	718	481	
13	0	0	0	0	510	709	485	
14	0	0	0	0	511	703	487	
15	0	0	0	0	513	696	497	
0	0	0	0	0	511	691	484	
1	0	0	0	0	510	684	495	
2	0	0	0	0	511	679	503	
3	0	0	0	0	513	674	510	
4	0	0	0	0	514	668	507	
5	0	0	0	0	515	662	512	
6	0	0	0	0	516	657	506	
7	0	0	0	0	516	651	521	
8	0	0	0	0	515	646	504	
9	0	0	0	0	513	640	518	
10	0	0	0	0	513	635	508	
11	0	0	0	0	512	630	514	
12	0	0	0	0	509	625	516	
13	0	0	0	0	508	620	518	
14	0	0	0	0	505	616	524	
15	0	0	0	0	504	612	510	
0	0	0	0	0	502	609	506	
1	0	0	0	0	500	606	518	
2	0	0	0	0	500	603	504	
3	0	0	0	0	500	600	501	
4	0	0	0	0	499	596	509	
5	0	0	0	0	499	593	507	
6	0	0	0	0	497	590	506	
7	0	0	0	0	496	587	507	
8	0	0	0	0	494	584	517	
9	0	0	0	0	492	581	517	
10	0	0	0	0	492	578	516	
11	0	0	0	0	491	575	522	
12	0	0	0	0	490	572	514	
13	0	0	0	0	489	569	505	
14	0	0	0	0	489	567	508	
15	0	0	0	0	489	565	508	
0	0	0	0	0	489	563	511	
1	0	0	0	0	492	561	513	
2	0	0	0	0	493	559	513	
3	0	0	0	0	495	557	505	
4	0	0	0	0	496	555	512	
5	0	0	0	0	496	553	509	
6	0	0	0	0	496	552	500	
7	0	0	0	0	495	551	504	
8	0	0	0	0	494	550	497	
9	0	0	0	0	494	548	497	
10	0	0	0	0	495	547	510	
11	0	0	0	0	494	545	526	
12	0	0	0	0	493	544	529	
13	0	0	0	0	493	543	527	
14	0	0	0	0	493	542	543	
15	0	0	0	0	492	541	514	
0	0	0	0	0	494	540	514	
1	0	0	0	0	492	540	508	
2	0	0	0	0	491	539	512	
3	0	0	0	0	488	539	506	
4	0	0	0	0	486	538	516	
5	0	0	0	0	485	537	505	
6	0	0	0	0	484	536	632	
7	0	0	0	0	481	535	963	
8	0	0	0	0	480	534	1022	
9	0	0	0	0	477	532	888	
10	0	0	0	0	477	529	555	
11	0	0	0	0	479	526	408	
12	0	0	0	0	481	523	366	
13	0	0	0	0	484	521	373	
14	0	0	0	0	486	519	376	
15	0	0	0	0	488	518	383	
0	0	0	0	0	491	515	386	
1	0	0	0	0	494	513	392	
2	0	0	0	0	498	510	421	
3	0	0	0	0	501	506	425	
4	0	0	0	0	501	503	448	
5	0	0	0	0	503	497	456	
6	0	0	0	0	508	492	471	
7	0	0	0	0	510	485	504	
8	0	0	0	0	510	476	517	
9	0	0	0	0	511	465	523	
10	0	0	0	0	513	454	535	
11	0	0	0	0	514	441	556	
12	0	0	0	0	513	428	562	
13	0	0	0	0	515	414	554	
14	0	0	0	0	514	402	544	
15	0	0	0	0	515	390	536	
0	0	0	0	0	514	379	539	
1	0	0	0	0	513	369	540	
2	0	0	0	0	513	361	536	
3	0	0	0	0	513	355	516	
4	0	0	0	0	509	348	483	
5	0	0	0	0	505	343	431	
6	0	0	0	0	503	339	387	
7	0	0	0	0	500	336	374	
8	0	0	0	0	500	333	374	
9	0	0	0	0	500	332	379	
10	0	0	0	0	501	330	403	
11	0	0	0	0	503	328	440	
12	0	0	0	0	505	327	461	
13	0	0	0	0	507	327	480	
14	0	0	0	0	508	324	470	
15	0	0	0	0	508	323	465	
0	0	0	0	0	508	321	469	
1	0	0	0	0	508	319	478	
2	0	0	0	0	508	317	494	
3	0	0	0	0	508	314	495	
4	0	0	0	0	507	312	493	
5	0	0	0	0	506	310	497	
6	0	0	0	0	507	307	497	
7	0	0	0	0	508	306	508	
8	0	0	0	0	510	304	502	
9	0	0	0	0	511	302	497	
10	0	0	0	0	512	300	494	
11	0	0	0	0	512	296	502	
12	0	0	0	0	513	293	500	
13	0	0	0	0	517	289	494	
14	0	0	0	0	521	285	494	
15	0	0	0	0	524	282	492	
0	0	0	0	0	525	279	493	
1	0	0	0	0	525	277	500	
2	0	0	0	0	528	277	498	
3	0	0	0	0	527	276	503	
4	0	0	0	0	524	277	504	
5	0	0	0	0	519	276	512	
6	0	0	0	0	516	277	511	
7	0	0	0	0	513	277	514	
8	0	0	0	0	511	276	522	
9	0	0	0	0	510	277	521	
10	0	0	0	0	508	276	509	
11	0	0	0	0	505	277	519	
12	0	0	0	0	502	278	514	
13	0	0	0	0	499	279	504	
14	0	0	0	0	496	281	512	
15	0	0	0	0	497	283	514	
0	0	0	0	0	497	284	510	
1	0	0	0	0	499	287	508	
2	0	0	0	0	500	290	515	
3	0	0	0	0	500	292	508	
4	0	0	0	0	499	296	506	
5	0	0	0	0	497	300	508	
6	0	0	0	0	495	303	512	
7	0	0	0	0	494	307	516	
8	0	0	0	0	493	311	510	
9	0	0	0	0	493	315	489	
10	0	0	0	0	496	319	517	
11	0	0	0	0	495	323	524	
12	0	0	0	0	496	327	515	
13	0	0	0	0	497	331	541	
14	0	0	0	0	497	336	524	
15	0	0	0	0	498	339	519	
0	0	0	0	0	500	344	513	
1	0	0	0	0	500	348	508	
2	0	0	0	0	501	352	497	
3	0	0	0	0	499	356	511	
4	0	0	0	0	496	359	476	
5	0	0	0	0	494	363	529	
6	0	0	0	0	491	366	788	
7	0	0	0	0	487	369	1022	
8	0	0	0	0	483	373	978	
9	0	0	0	0	479	376	659	
10	0	0	0	0	474	378	447	
11	0	0	0	0	468	380	363	
12	0	0	0	0	465	381	359	
13	0	0	0	0	463	384	378	
14	0	0	0	0	461	385	387	
15	0	0	0	0	455	387	403	
0	0	0	0	0	448	390	426	
1	0	0	0	0	443	393	447	
2	0	0	0	0	437	396	456	
3	0	0	0	0	431	396	473	
4	0	0	0	0	426	397	483	
5	0	0	0	0	424	398	492	
6	0	0	0	0	421	399	504	
7	0	0	0	0	420	399	511	
8	0	0	0	0	420	399	524	
9	0	0	0	0	421	399	537	
10	0	0	0	0	423	400	542	
11	0	0	0	0	429	399	561	
12	0	0	0	0	436	399	572	
13	0	0	0	0	445	398	596	
14	0	0	0	0	454	398	600	
15	0	0	0	0	465	397	602	
0	0	0	0	0	475	397	606	
1	0	0	0	0	485	398	592	
2	0	0	0	0	493	399	547	
3	0	0	0	0	499	400	505	
4	0	0	0	0	503	401	453	
5	0	0	0	0	504	402	427	
6	0	0	0	0	502	402	406	
7	0	0	0	0	499	403	399	
8	0	0	0	0	495	403	401	
9	0	0	0	0	490	402	421	
10	0	0	0	0	486	401	428	
11	0	0	0	0	483	400	434	
12	0	0	0	0	482	398	446	
13	0	0	0	0	481	396	460	
14	0	0	0	0	482	395	463	
15	0	0	0	0	481	393	484	
0	0	0	0	0	483	391	492	
1	0	0	0	0	484	390	498	
2	0	0	0	0	488	389	500	
3	0	0	0	0	494	390	509	
4	0	0	0	0	498	390	514	
5	0	0	0	0	504	393	501	
6	0	0	0	0	508	398	516	
7	0	0	0	0	510	405	507	
8	0	0	0	0	512	412	506	
9	0	0	0	0	513	419	508	
10	0	0	0	0	515	427	506	
11	0	0	0	0	517	434	508	
12	0	0	0	0	517	440	515	
13	0	0	0	0	517	446	511	
14	0	0	0	0	514	452	514	
15	0	0	0	0	510	457	504	
0	0	0	0	0	504	463	509	
1	0	0	0	0	498	467	503	
2	0	0	0	0	492	471	505	
3	0	0	0	0	488	477	491	
4	0	0	0	0	484	482	507	
5	0	0	0	0	480	488	512	
6	0	0	0	0	474	495	511	
7	0	0	0	0	472	502	513	
8	0	0	0	0	472	509	514	
9	0	0	0	0	472	516	513	
10	0	0	0	0	475	524	527	
11	0	0	0	0	478	531	521	
12	0	0	0	0	483	538	515	
13	0	0	0	0	489	545	523	
14	0	0	0	0	496	552	523	
15	0	0	0	0	500	559	511	
0	0	0	0	0	506	566	523	
1	0	0	0	0	510	572	524	
2	0	0	0	0	514	579	532	
3	0	0	0	0	515	585	529	
4	0	0	0	0	515	592	512	
5	0	0	0	0	515	598	530	
6	0	0	0	0	512	604	516	
7	0	0	0	0	511	611	527	
8	0	0	0	0	512	616	533	
9	0	0	0	0	512	622	518	
10	0	0	0	0	513	627	550	
11	0	0	0	0	515	633	543	
12	0	0	0	0	516	638	540	
13	0	0	0	0	518	642	528	
14	0	0	0	0	518	647	520	
15	0	0	0	0	515	651	517	
0	0	0	0	0	511	655	496	
1	0	0	0	0	510	658	478	
2	0	0	0	0	508	662	585	
3	0	0	0	0	505	665	899	
4	0	0	0	0	504	668	1022	
5	0	0	0	0	502	671	949	
6	0	0	0	0	501	672	567	
7	0	0	0	0	501	673	397	
8	0	0	0	0	502	672	356	
9	0	0	0	0	502	673	352	
10	0	0	0	0	501	674	355	
11	0	0	0	0	502	675	361	
12	0	0	0	0	504	675	389	
13	0	0	0	0	507	675	408	
14	0	0	0	0	510	673	424	
15	0	0	0	0	512	671	436	
0	0	0	0	0	513	668	456	
1	0	0	0	0	513	665	461	
2	0	0	0	0	513	662	493	
3	0	0	0	0	513	657	492	
4	0	0	0	0	513	654	502	
5	0	0	0	0	512	650	521	
6	0	0	0	0	511	644	537	
7	0	0	0	0	510	639	543	
8	0	0	0	0	508	632	565	
9	0	0	0	0	507	626	576	
10	0	0	0	0	505	619	576	
11	0	0	0	0	505	613	582	
12	0	0	0	0	504	608	585	
13	0	0	0	0	504	604	572	
14	0	0	0	0	504	601	551	
15	0	0	0	0	507	599	520	
0	0	0	0	0	507	598	486	
1	0	0	0	0	508	596	450	
2	0	0	0	0	509	594	419	
3	0	0	0	0	509	592	418	
4	0	0	0	0	511	588	423	
5	0	0	0	0	513	583	422	
6	0	0	0	0	516	578	422	
7	0	0	0	0	517	572	436	
8	0	0	0	0	519	564	451	
9	0	0	0	0	522	558	458	
10	0	0	0	0	527	552	467	
11	0	0	0	0	530	546	466	
12	0	0	0	0	535	542	472	
13	0	0	0	0	540	538	484	
14	0	0	0	0	542	536	480	
15	0	0	0	0	542	533	489	
0	0	0	0	0	542	531	502	
1	0	0	0	0	541	528	508	
2	0	0	0	0	540	525	520	
3	0	0	0	0	538	521	527	
4	0	0	0	0	536	518	523	
5	0	0	0	0	534	513	520	
6	0	0	0	0	532	508	513	
7	0	0	0	0	530	504	511	
8	0	0	0	0	527	499	512	
9	0	0	0	0	524	494	510	
10	0	0	0	0	523	489	521	
11	0	0	0	0	519	484	512	
12	0	0	0	0	517	479	511	
13	0	0	0	0	515	474	511	
14	0	0	0	0	515	469	507	
15	0	0	0	0	514	464	508	
0	0	0	0	0	513	459	511	
1	0	0	0	0	515	454	504	
2	0	0	0	0	515	449	494	
3	0	0	0	0	514	444	497	
4	0	0	0	0	512	440	491	
5	0	0	0	0	511	435	494	
6	0	0	0	0	507	430	494	
7	0	0	0	0	503	426	489	
8	0	0	0	0	499	422	492	
9	0	0	0	0	497	418	514	
10	0	0	0	0	495	415	520	
11	0	0	0	0	492	411	522	
12	0	0	0	0	491	408	519	
13	0	0	0	0	492	404	528	
14	0	0	0	0	492	400	527	
15	0	0	0	0	493	397	521	
0	0	0	0	0	495	394	517	
1	0	0	0	0	499	391	515	
2	0	0	0	0	504	389	508	
3	0	0	0	0	506	387	499	
4	0	0	0	0	508	385	509	
5	0	0	0	0	510	383	509	
6	0	0	0	0	511	381	529	
7	0	0	0	0	512	380	540	
8	0	0	0	0	513	377	526	
9	0	0	0	0	513	376	526	
10	0	0	0	0	514	375	515	
11	0	0	0	0	516	373	497	
12	0	0	0	0	518	371	499	
13	0	0	0	0	519	370	480	
14	0	0	0	0	521	368	504	
15	0	0	0	0	520	367	696	
0	0	0	0	0	522	364	1019	
1	0	0	0	0	522	363	1022	
2	0	0	0	0	522	362	765	
3	0	0	0	0	522	359	498	
4	0	0	0	0	521	358	371	
5	0	0	0	0	520	356	368	
6	0	0	0	0	519	356	376	
7	0	0	0	0	518	355	388	
8	0	0	0	0	515	356	396	
9	0	0	0	0	515	355	406	
10	0	0	0	0	515	355	424	
11	0	0	0	0	515	354	448	
12	0	0	0	0	516	353	458	
13	0	0	0	0	516	352	459	
14	0	0	0	0	516	351	484	
15	0	0	0	0	514	350	492	
0	0	0	0	0	511	348	509	
1	0	0	0	0	508	347	519	
2	0	0	0	0	503	344	530	
3	0	0	0	0	495	340	543	
4	0	0	0	0	488	338	555	
5	0	0	0	0	480	335	561	
6	0	0	0	0	473	331	567	
7	0	0	0	0	467	328	574	
8	0	0	0	0	461	326	579	
9	0	0	0	0	456	323	578	
10	0	0	0	0	452	321	578	
11	0	0	0	0	450	320	545	
12	0	0	0	0	450	319	507	
13	0	0	0	0	448	317	463	
14	0	0	0	0	449	317	426	
15	0	0	0	0	446	316	405	
0	0	0	0	0	441	315	403	
1	0	0	0	0	436	314	406	
2	0	0	0	0	430	314	417	
3	0	0	0	0	425	313	431	
4	0	0	0	0	423	312	435	
5	0	0	0	0	422	311	429	
6	0	0	0	0	422	311	452	
7	0	0	0	0	423	311	463	
8	0	0	0	0	426	312	457	
9	0	0	0	0	431	312	475	
10	0	0	0	0	438	314	486	
11	0	0	0	0	444	317	501	
12	0	0	0	0	448	319	503	
13	0	0	0	0	454	322	511	
14	0	0	0	0	455	325	512	
15	0	0	0	0	456	328	526	
0	0	0	0	0	455	330	522	
1	0	0	0	0	456	332	511	
2	0	0	0	0	455	335	508	
3	0	0	0	0	453	336	508	
4	0	0	0	0	449	338	511	
5	0	0	0	0	444	339	507	
6	0	0	0	0	441	341	503	
7	0	0	0	0	436	342	501	
8	0	0	0	0	434	344	513	
9	0	0	0	0	431	346	510	
10	0	0	0	0	430	348	516	
11	0	0	0	0	427	350	519	
12	0	0	0	0	424	352	514	
13	0	0	0	0	422	354	518	
14	0	0	0	0	419	356	519	
15	0	0	0	0	420	358	503	
0	0	0	0	0	422	360	501	
1	0	0	0	0	425	362	504	
2	0	0	0	0	427	363	486	
3	0	0	0	0	427	364	503	
4	0	0	0	0	425	366	496	
5	0	0	0	0	427	367	499	
6	0	0	0	0	427	368	511	
7	0	0	0	0	428	369	510	
8	0	0	0	0	431	369	512	
9	0	0	0	0	433	370	508	
10	0	0	0	0	437	372	503	
11	0	0	0	0	440	373	496	
12	0	0	0	0	442	374	503	
13	0	0	0	0	444	375	499	
14	0	0	0	0	448	376	516	
15	0	0	0	0	451	377	512	
0	0	0	0	0	459	379	521	
1	0	0	0	0	467	380	527	
2	0	0	0	0	474	382	522	
3	0	0	0	0	479	383	518	
4	0	0	0	0	487	385	511	
5	0	0	0	0	499	387	526	
6	0	0	0	0	516	387	528	
7	0	0	0	0	533	389	540	
8	0	0	0	0	549	390	547	
9	0	0	0	0	563	391	536	
10	0	0	0	0	572	393	526	
11	0	0	0	0	574	394	520	
12	0	0	0	0	574	395	519	
13	0	0	0	0	572	396	511	
14	0	0	0	0	566	398	485	
15	0	0	0	0	559	399	519	
0	0	0	0	0	552	400	717	
1	0	0	0	0	545	401	1022	
2	0	0	0	0	537	402	1022	
3	0	0	0	0	530	403	728	
4	0	0	0	0	524	405	476	
5	0	0	0	0	518	406	361	
6	0	0	0	0	511	406	357	
7	0	0	0	0	506	408	364	
8	0	0	0	0	502	410	369	
9	0	0	0	0	499	412	376	
10	0	0	0	0	498	414	384	
11	0	0	0	0	494	415	411	
12	0	0	0	0	494	416	431	
13	0	0	0	0	495	416	446	
14	0	0	0	0	496	416	449	
15	0	0	0	0	497	416	471	
0	0	0	0	0	499	416	479	
1	0	0	0	0	499	416	492	
2	0	0	0	0	499	416	503	
3	0	0	0	0	500	415	524	
4	0	0	0	0	502	413	546	
5	0	0	0	0	503	410	561	
6	0	0	0	0	504	407	556	
7	0	0	0	0	505	403	560	
8	0	0	0	0	507	399	569	
9	0	0	0	0	509	396	585	
10	0	0	0	0	510	393	601	
11	0	0	0	0	511	392	574	
12	0	0	0	0	509	391	538	
13	0	0	0	0	508	390	500	
14	0	0	0	0	507	389	454	
15	0	0	0	0	506	388	415	
0	0	0	0	0	508	388	406	
1	0	0	0	0	510	387	406	
2	0	0	0	0	512	387	401	
3	0	0	0	0	513	387	416	
4	0	0	0	0	513	386	415	
5	0	0	0	0	514	386	423	
6	0	0	0	0	513	385	446	
7	0	0	0	0	512	384	464	
8	0	0	0	0	510	384	470	
9	0	0	0	0	508	385	449	
10	0	0	0	0	505	386	455	
11	0	0	0	0	502	389	483	
12	0	0	0	0	499	391	497	
13	0	0	0	0	495	395	499	
14	0	0	0	0	492	398	489	
15	0	0	0	0	488	399	502	
0	0	0	0	0	488	401	525	
1	0	0	0	0	489	403	541	
2	0	0	0	0	491	404	537	
3	0	0	0	0	491	405	543	
4	0	0	0	0	493	406	520	
5	0	0	0	0	492	407	500	
6	0	0	0	0	491	408	479	
7	0	0	0	0	491	410	502	
8	0	0	0	0	490	412	497	
9	0	0	0	0	490	415	487	
10	0	0	0	0	494	418	488	
11	0	0	0	0	497	421	502	
12	0	0	0	0	501	425	516	
13	0	0	0	0	504	429	526	
14	0	0	0	0	507	432	536	
15	0	0	0	0	511	436	534	
0	0	0	0	0	515	440	540	
1	0	0	0	0	519	444	521	
2	0	0	0	0	526	448	514	
3	0	0	0	0	531	451	499	
4	0	0	0	0	536	455	497	
5	0	0	0	0	542	459	486	
6	0	0	0	0	545	463	499	
7	0	0	0	0	547	467	509	
8	0	0	0	0	549	472	520	
9	0	0	0	0	548	476	535	
10	0	0	0	0	546	480	544	
11	0	0	0	0	542	484	540	
12	0	0	0	0	539	487	548	
13	0	0	0	0	535	491	525	
14	0	0	0	0	530	493	514	
15	0	0	0	0	526	495	523	
0	0	0	0	0	524	496	521	
1	0	0	0	0	521	497	526	
2	0	0	0	0	519	498	515	
3	0	0	0	0	517	499	520	
4	0	0	0	0	516	500	517	
5	0	0	0	0	514	501	510	
6	0	0	0	0	515	503	508	
7	0	0	0	0	515	505	517	
8	0	0	0	0	516	507	517	
9	0	0	0	0	516	509	532	
10	0	0	0	0	516	511	513	
11	0	0	0	0	517	513	515	
12	0	0	0	0	518	514	500	
13	0	0	0	0	517	515	497	
14	0	0	0	0	516	517	494	
15	0	0	0	0	514	519	484	
0	0	0	0	0	512	520	470	
1	0	0	0	0	512	523	601	
2	0	0	0	0	512	524	923	
3	0	0	0	0	509	526	1022	
4	0	0	0	0	508	527	828	
5	0	0	0	0	507	529	535	
6	0	0	0	0	505	530	379	
7	0	0	0	0	504	531	341	
8	0	0	0	0	503	533	352	
9	0	0	0	0	505	535	357	
10	0	0	0	0	504	539	361	
11	0	0	0	0	505	540	390	
12	0	0	0	0	505	543	412	
13	0	0	0	0	505	545	435	
14	0	0	0	0	505	547	446	
15	0	0	0	0	505	548	455	
0	0	0	0	0	506	549	465	
1	0	0	0	0	507	550	484	
2	0	0	0	0	505	551	492	
3	0	0	0	0	505	553	505	
4	0	0	0	0	505	553	516	
5	0	0	0	0	504	553	516	
6	0	0	0	0	503	551	535	
7	0	0	0	0	502	548	555	
8	0	0	0	0	502	544	571	
9	0	0	0	0	503	541	583	
10	0	0	0	0	503	538	580	
11	0	0	0	0	502	536	579	
12	0	0	0	0	500	536	583	
13	0	0	0	0	497	536	563	
14	0	0	0	0	497	536	519	
15	0	0	0	0	499	536	474	
0	0	0	0	0	501	535	433	
1	0	0	0	0	503	535	404	
2	0	0	0	0	503	533	396	
3	0	0	0	0	505	531	395	
4	0	0	0	0	508	530	401	
5	0	0	0	0	511	528	408	
6	0	0	0	0	514	527	420	
7	0	0	0	0	516	526	436	
8	0	0	0	0	518	525	445	
9	0	0	0	0	519	525	450	
10	0	0	0	0	519	525	460	
11	0	0	0	0	520	525	479	
12	0	0	0	0	520	526	498	
13	0	0	0	0	524	527	504	
14	0	0	0	0	525	529	503	
15	0	0	0	0	523	531	499	
0	0	0	0	0	521	532	516	
1	0	0	0	0	520	533	519	
2	0	0	0	0	519	533	524	
3	0	0	0	0	517	532	533	
4	0	0	0	0	517	532	545	
5	0	0	0	0	519	533	557	
6	0	0	0	0	520	537	543	
7	0	0	0	0	522	542	543	
8	0	0	0	0	523	548	556	
9	0	0	0	0	523	554	552	
10	0	0	0	0	522	558	563	
11	0	0	0	0	523	561	579	
12	0	0	0	0	524	563	593	
13	0	0	0	0	524	566	604	
14	0	0	0	0	523	568	590	
15	0	0	0	0	525	571	585	
0	0	0	0	0	527	573	580	
1	0	0	0	0	528	574	567	
2	0	0	0	0	530	574	542	
3	0	0	0	0	533	573	530	
4	0	0	0	0	535	571	502	
5	0	0	0	0	537	567	492	
6	0	0	0	0	539	565	463	
7	0	0	0	0	537	563	442	
8	0	0	0	0	537	563	428	
9	0	0	0	0	534	563	464	
10	0	0	0	0	533	561	465	
11	0	0	0	0	531	559	433	
12	0	0	0	0	531	555	446	
13	0	0	0	0	531	550	441	
14	0	0	0	0	531	544	457	
15	0	0	0	0	531	537	468	
0	0	0	0	0	531	530	493	
1	0	0	0	0	530	523	514	
2	0	0	0	0	530	514	500	
3	0	0	0	0	530	506	515	
4	0	0	0	0	528	497	487	
5	0	0	0	0	527	489	475	
6	0	0	0	0	525	483	472	
7	0	0	0	0	524	476	498	
8	0	0	0	0	519	469	566	
9	0	0	0	0	515	463	596	
10	0	0	0	0	514	457	624	
11	0	0	0	0	515	451	616	
12	0	0	0	0	515	444	576	
13	0	0	0	0	515	439	526	
14	0	0	0	0	516	432	501	
15	0	0	0	0	518	427	435	
0	0	0	0	0	518	422	521	
1	0	0	0	0	518	417	830	
2	0	0	0	0	520	412	1022	
3	0	0	0	0	519	408	935	
4	0	0	0	0	519	403	622	
5	0	0	0	0	519	399	463	
6	0	0	0	0	518	395	409	
7	0	0	0	0	513	393	411	
8	0	0	0	0	506	391	402	
9	0	0	0	0	498	390	414	
10	0	0	0	0	492	388	408	
11	0	0	0	0	487	386	403	
12	0	0	0	0	483	385	427	
13	0	0	0	0	481	383	439	
14	0	0	0	0	482	382	447	
15	0	0	0	0	481	379	451	
0	0	0	0	0	481	378	436	
1	0	0	0	0	480	377	419	
2	0	0	0	0	481	376	423	
3	0	0	0	0	482	374	452	
4	0	0	0	0	484	371	488	
5	0	0	0	0	487	369	521	
6	0	0	0	0	491	366	555	
7	0	0	0	0	495	363	559	
8	0	0	0	0	498	360	565	
9	0	0	0	0	502	357	583	
10	0	0	0	0	508	355	562	
11	0	0	0	0	514	353	568	
12	0	0	0	0	521	352	553	
13	0	0	0	0	532	351	511	
14	0	0	0	0	546	350	463	
15	0	0	0	0	562	349	418	
0	0	0	0	0	579	349	401	
1	0	0	0	0	594	348	386	
2	0	0	0	0	609	348	391	
3	0	0	0	0	622	348	408	
4	0	0	0	0	631	346	440	
5	0	0	0	0	637	346	453	
6	0	0	0	0	639	345	459	
7	0	0	0	0	636	345	472	
8	0	0	0	0	629	347	457	
9	0	0	0	0	617	346	462	
10	0	0	0	0	604	348	492	
11	0	0	0	0	590	350	499	
12	0	0	0	0	573	352	523	
13	0	0	0	0	556	354	528	
14	0	0	0	0	540	357	520	
15	0	0	0	0	524	359	511	
0	0	0	0	0	511	361	515	
1	0	0	0	0	498	362	513	
2	0	0	0	0	487	364	529	
3	0	0	0	0	478	364	526	
4	0	0	0	0	470	365	529	
5	0	0	0	0	463	365	526	
6	0	0	0	0	457	366	508	
7	0	0	0	0	451	366	506	
8	0	0	0	0	444	366	504	
9	0	0	0	0	437	366	495	
10	0	0	0	0	427	366	511	
11	0	0	0	0	416	366	511	
12	0	0	0	0	402	367	518	
13	0	0	0	0	384	368	504	
14	0	0	0	0	359	369	505	
15	0	0	0	0	324	371	519	
0	0	0	0	0	277	372	519	
1	0	0	0	0	223	373	505	
2	0	0	0	0	167	374	494	
3	0	0	0	0	119	375	496	
4	0	0	0	0	82	377	504	
5	0	0	0	0	58	377	506	
6	0	0	0	0	44	378	508	
7	0	0	0	0	39	378	513	
8	0	0	0	0	39	379	527	
9	0	0	0	0	44	379	521	
10	0	0	0	0	53	381	513	
11	0	0	0	0	68	381	512	
12	0	0	0	0	86	382	494	
13	0	0	0	0	109	384	499	
14	0	0	0	0	134	384	514	
15	0	0	0	0	158	386	513	
0	0	0	0	0	180	387	513	
1	0	0	0	0	204	388	510	
2	0	0	0	0	228	390	508	
3	0	0	0	0	256	392	512	
4	0	0	0	0	285	394	518	
5	0	0	0	0	315	396	507	
6	0	0	0	0	346	398	504	
7	0	0	0	0	374	400	510	
8	0	0	0	0	398	402	527	
9	0	0	0	0	422	403	520	
10	0	0	0	0	446	406	543	
11	0	0	0	0	466	407	541	
12	0	0	0	0	488	408	543	
13	0	0	0	0	512	409	535	
14	0	0	0	0	538	411	524	
15	0	0	0	0	560	412	522	
0	0	0	0	0	576	412	507	
1	0	0	0	0	585	414	511	
2	0	0	0	0	586	415	588	
3	0	0	0	0	578	417	920	
4	0	0	0	0	563	419	1022	
5	0	0	0	0	540	420	919	
6	0	0	0	0	513	422	577	
7	0	0	0	0	487	423	399	
8	0	0	0	0	460	425	369	
9	0	0	0	0	435	427	367	
10	0	0	0	0	413	429	373	
11	0	0	0	0	395	433	377	
12	0	0	0	0	378	435	391	
13	0	0	0	0	369	437	399	
14	0	0	0	0	362	439	414	
15	0	0	0	0	360	441	435	
0	0	0	0	0	363	442	425	
1	0	0	0	0	373	443	452	
2	0	0	0	0	389	443	472	
3	0	0	0	0	406	443	493	
4	0	0	0	0	429	443	507	
5	0	0	0	0	451	441	506	
6	0	0	0	0	472	439	519	
7	0	0	0	0	489	435	530	
8	0	0	0	0	503	431	563	
9	0	0	0	0	511	427	578	
10	0	0	0	0	518	422	594	
11	0	0	0	0	525	417	594	
12	0	0	0	0	531	413	594	
13	0	0	0	0	536	410	591	
14	0	0	0	0	541	408	575	
15	0	0	0	0	548	406	539	
0	0	0	0	0	556	405	479	
1	0	0	0	0	563	406	436	
2	0	0	0	0	568	407	400	
3	0	0	0	0	569	409	373	
4	0	0	0	0	569	412	357	
5	0	0	0	0	568	417	362	
6	0	0	0	0	565	423	385	
7	0	0	0	0	560	430	403	
8	0	0	0	0	552	438	412	
9	0	0	0	0	544	447	430	
10	0	0	0	0	538	455	447	
11	0	0	0	0	534	463	473	
12	0	0	0	0	528	472	481	
13	0	0	0	0	524	481	469	
14	0	0	0	0	519	491	483	
15	0	0	0	0	518	500	490	
0	0	0	0	0	516	509	483	
1	0	0	0	0	513	517	510	
2	0	0	0	0	512	525	504	
3	0	0	0	0	512	533	505	
4	0	0	0	0	513	539	512	
5	0	0	0	0	514	545	508	
6	0	0	0	0	516	550	515	
7	0	0	0	0	519	554	508	
8	0	0	0	0	519	558	510	
9	0	0	0	0	519	562	501	
10	0	0	0	0	518	568	491	
11	0	0	0	0	515	573	487	
12	0	0	0	0	514	579	492	
13	0	0	0	0	512	585	481	
14	0	0	0	0	511	592	478	
15	0	0	0	0	510	597	483	
0	0	0	0	0	508	602	493	
1	0	0	0	0	507	605	505	
2	0	0	0	0	506	608	524	
3	0	0	0	0	505	609	537	
4	0	0	0	0	504	611	530	
5	0	0	0	0	503	613	521	
6	0	0	0	0	503	615	519	
7	0	0	0	0	502	617	505	
8	0	0	0	0	501	620	503	
9	0	0	0	0	501	622	517	
10	0	0	0	0	501	624	513	
11	0	0	0	0	499	627	526	
12	0	0	0	0	499	629	534	
13	0	0	0	0	498	632	531	
14	0	0	0	0	497	634	524	
15	0	0	0	0	499	636	529	
0	0	0	0	0	499	637	544	
1	0	0	0	0	499	639	543	
2	0	0	0	0	499	639	544	
3	0	0	0	0	501	640	551	
4	0	0	0	0	502	641	563	
5	0	0	0	0	501	642	577	
6	0	0	0	0	501	642	579	
7	0	0	0	0	499	641	590	
8	0	0	0	0	498	641	590	
9	0	0	0	0	496	641	585	
10	0	0	0	0	495	639	590	
11	0	0	0	0	496	639	607	
12	0	0	0	0	498	639	597	
13	0	0	0	0	498	638	590	
14	0	0	0	0	499	636	581	
15	0	0	0	0	500	635	559	
0	0	0	0	0	500	633	542	
1	0	0	0	0	502	632	528	
2	0	0	0	0	503	632	519	
3	0	0	0	0	502	632	632	
4	0	0	0	0	500	632	943	
5	0	0	0	0	498	633	1022	
6	0	0	0	0	497	634	847	
7	0	0	0	0	496	634	555	
8	0	0	0	0	495	633	386	
9	0	0	0	0	494	631	340	
10	0	0	0	0	494	629	366	
11	0	0	0	0	492	627	353	
12	0	0	0	0	490	625	380	
13	0	0	0	0	488	624	384	
14	0	0	0	0	486	623	389	
15	0	0	0	0	482	623	394	
0	0	0	0	0	480	620	417	
1	0	0	0	0	478	615	441	
2	0	0	0	0	476	609	462	
3	0	0	0	0	474	603	477	
4	0	0	0	0	475	596	473	
5	0	0	0	0	475	589	472	
6	0	0	0	0	477	580	467	
7	0	0	0	0	477	571	487	
8	0	0	0	0	479	560	495	
9	0	0	0	0	481	548	532	
10	0	0	0	0	483	535	565	
11	0	0	0	0	486	521	565	
12	0	0	0	0	488	507	565	
13	0	0	0	0	490	493	564	
14	0	0	0	0	492	480	545	
15	0	0	0	0	492	469	507	
0	0	0	0	0	493	458	458	
1	0	0	0	0	492	449	408	
2	0	0	0	0	493	441	376	
3	0	0	0	0	492	433	356	
4	0	0	0	0	491	427	358	
5	0	0	0	0	491	420	376	
6	0	0	0	0	492	413	401	
7	0	0	0	0	496	406	412	
8	0	0	0	0	497	399	426	
9	0	0	0	0	499	391	442	
10	0	0	0	0	501	384	440	
11	0	0	0	0	501	378	453	
12	0	0	0	0	503	372	458	
13	0	0	0	0	504	367	470	
14	0	0	0	0	504	362	506	
15	0	0	0	0	507	359	550	
0	0	0	0	0	508	355	546	
1	0	0	0	0	509	352	535	
2	0	0	0	0	510	349	511	
3	0	0	0	0	509	348	517	
4	0	0	0	0	508	347	515	
5	0	0	0	0	508	347	515	
6	0	0	0	0	509	347	531	
7	0	0	0	0	508	347	548	
8	0	0	0	0	508	345	566	
9	0	0	0	0	508	344	569	
10	0	0	0	0	510	343	561	
11	0	0	0	0	511	341	547	
12	0	0	0	0	509	339	556	
13	0	0	0	0	510	339	547	
14	0	0	0	0	512	337	554	
15	0	0	0	0	512	337	560	
0	0	0	0	0	514	337	561	
1	0	0	0	0	514	338	545	
2	0	0	0	0	515	338	537	
3	0	0	0	0	515	339	531	
4	0	0	0	0	514	339	527	
5	0	0	0	0	514	339	536	
6	0	0	0	0	513	339	529	
7	0	0	0	0	510	338	519	
8	0	0	0	0	510	336	531	
9	0	0	0	0	510	335	526	
10	0	0	0	0	508	334	515	
11	0	0	0	0	507	333	503	
12	0	0	0	0	508	334	498	
13	0	0	0	0	507	335	483	
14	0	0	0	0	508	336	488	
15	0	0	0	0	507	338	511	
0	0	0	0	0	506	339	516	
1	0	0	0	0	505	340	524	
2	0	0	0	0	504	340	519	
3	0	0	0	0	503	340	511	
4	0	0	0	0	503	339	457	
5	0	0	0	0	503	339	442	
6	0	0	0	0	503	339	451	
7	0	0	0	0	503	340	470	
8	0	0	0	0	504	341	465	
9	0	0	0	0	505	344	448	
10	0	0	0	0	506	345	457	
11	0	0	0	0	506	348	454	
12	0	0	0	0	506	350	487	
13	0	0	0	0	508	352	505	
14	0	0	0	0	508	355	498	
15	0	0	0	0	508	358	522	
0	0	0	0	0	507	361	536	
1	0	0	0	0	509	364	551	
2	0	0	0	0	509	366	566	
3	0	0	0	0	508	368	552	
4	0	0	0	0	507	370	575	
5	0	0	0	0	506	372	742	
6	0	0	0	0	506	374	1022	
7	0	0	0	0	504	376	1022	
8	0	0	0	0	503	377	819	
9	0	0	0	0	504	378	485	
10	0	0	0	0	503	378	343	
11	0	0	0	0	504	379	319	
12	0	0	0	0	502	381	335	
13	0	0	0	0	501	384	340	
14	0	0	0	0	500	387	351	
15	0	0	0	0	496	388	373	
0	0	0	0	0	496	388	401	
1	0	0	0	0	497	389	432	
2	0	0	0	0	499	388	435	
3	0	0	0	0	499	387	455	
4	0	0	0	0	502	386	466	
5	0	0	0	0	504	385	483	
6	0	0	0	0	505	384	491	
7	0	0	0	0	506	383	495	
8	0	0	0	0	507	383	503	
9	0	0	0	0	505	383	528	
10	0	0	0	0	504	382	537	
11	0	0	0	0	502	381	535	
12	0	0	0	0	502	380	551	
13	0	0	0	0	501	378	557	
14	0	0	0	0	501	377	575	
15	0	0	0	0	500	377	582	
0	0	0	0	0	502	377	580	
1	0	0	0	0	504	378	559	
2	0	0	0	0	507	379	517	
3	0	0	0	0	509	380	465	
4	0	0	0	0	510	380	441	
5	0	0	0	0	510	381	411	
6	0	0	0	0	510	382	403	
7	0	0	0	0	510	382	415	
8	0	0	0	0	511	382	418	
9	0	0	0	0	513	382	428	
10	0	0	0	0	515	382	436	
11	0	0	0	0	516	381	447	
12	0	0	0	0	517	381	448	
13	0	0	0	0	518	381	460	
14	0	0	0	0	519	380	480	
15	0	0	0	0	520	381	477	
0	0	0	0	0	521	382	476	
1	0	0	0	0	521	383	495	
2	0	0	0	0	520	385	499	
3	0	0	0	0	519	387	508	
4	0	0	0	0	521	388	503	
5	0	0	0	0	522	390	499	
6	0	0	0	0	524	391	520	
7	0	0	0	0	523	393	521	
8	0	0	0	0	523	393	520	
9	0	0	0	0	522	393	509	
10	0	0	0	0	520	394	533	
11	0	0	0	0	521	393	530	
12	0	0	0	0	521	394	528	
13	0	0	0	0	521	394	526	
14	0	0	0	0	522	395	518	
15	0	0	0	0	521	395	518	
0	0	0	0	0	521	395	512	
1	0	0	0	0	521	396	519	
2	0	0	0	0	521	396	516	
3	0	0	0	0	520	397	517	
4	0	0	0	0	520	398	520	
5	0	0	0	0	519	399	507	
6	0	0	0	0	518	400	521	
7	0	0	0	0	518	400	526	
8	0	0	0	0	517	401	519	
9	0	0	0	0	517	401	508	
10	0	0	0	0	518	401	512	
11	0	0	0	0	517	401	509	
12	0	0	0	0	519	401	517	
13	0	0	0	0	519	401	519	
14	0	0	0	0	516	401	514	
15	0	0	0	0	514	402	521	
0	0	0	0	0	515	401	507	
1	0	0	0	0	515	402	530	
2	0	0	0	0	515	402	525	
3	0	0	0	0	516	403	513	
4	0	0	0	0	515	403	516	
5	0	0	0	0	515	404	520	
6	0	0	0	0	515	405	520	
7	0	0	0	0	515	405	513	
8	0	0	0	0	515	406	524	
9	0	0	0	0	516	406	529	
10	0	0	0	0	517	406	525	
11	0	0	0	0	517	406	524	
12	0	0	0	0	516	406	517	
13	0	0	0	0	515	408	511	
14	0	0	0	0	513	408	515	
15	0	0	0	0	512	409	535	
0	0	0	0	0	511	409	526	
1	0	0	0	0	511	410	554	
2	0	0	0	0	511	411	525	
3	0	0	0	0	511	411	529	
4	0	0	0	0	508	412	517	
5	0	0	0	0	508	412	505	
6	0	0	0	0	508	412	503	
7	0	0	0	0	510	412	488	
8	0	0	0	0	511	412	470	
9	0	0	0	0	511	412	560	
10	0	0	0	0	513	413	847	
11	0	0	0	0	514	414	1022	
12	0	0	0	0	515	414	988	
13	0	0	0	0	515	414	600	
14	0	0	0	0	515	414	406	
15	0	0	0	0	514	413	337	
0	0	0	0	0	514	413	342	
1	0	0	0	0	513	415	340	
2	0	0	0	0	512	417	340	
3	0	0	0	0	510	418	352	
4	0	0	0	0	508	419	374	
5	0	0	0	0	507	419	400	
6	0	0	0	0	506	419	416	
7	0	0	0	0	506	419	431	
8	0	0	0	0	505	419	442	
9	0	0	0	0	505	419	462	
10	0	0	0	0	505	419	490	
11	0	0	0	0	504	419	491	
12	0	0	0	0	504	419	515	
13	0	0	0	0	505	419	529	
14	0	0	0	0	507	418	545	
15	0	0	0	0	504	416	567	
0	0	0	0	0	503	414	572	
1	0	0	0	0	503	412	591	
2	0	0	0	0	504	410	600	
3	0	0	0	0	504	409	611	
4	0	0	0	0	504	408	610	
5	0	0	0	0	505	407	585	
6	0	0	0	0	505	406	556	
7	0	0	0	0	506	405	500	
8	0	0	0	0	507	404	454	
9	0	0	0	0	509	402	425	
10	0	0	0	0	513	399	407	
11	0	0	0	0	515	397	402	
12	0	0	0	0	517	393	414	
13	0	0	0	0	519	390	427	
14	0	0	0	0	521	385	439	
15	0	0	0	0	522	381	443	
0	0	0	0	0	523	377	451	
1	0	0	0	0	524	373	463	
2	0	0	0	0	524	368	477	
3	0	0	0	0	526	365	494	
4	0	0	0	0	527	359	503	
5	0	0	0	0	528	353	518	
6	0	0	0	0	528	348	531	
7	0	0	0	0	528	342	535	
8	0	0	0	0	530	336	521	
9	0	0	0	0	529	330	525	
10	0	0	0	0	529	326	521	
11	0	0	0	0	528	322	515	
12	0	0	0	0	530	318	533	
13	0	0	0	0	530	316	521	
14	0	0	0	0	530	315	501	
15	0	0	0	0	530	313	463	
0	0	0	0	0	529	311	454	
1	0	0	0	0	529	308	438	
2	0	0	0	0	529	303	449	
3	0	0	0	0	528	297	462	
4	0	0	0	0	528	289	467	
5	0	0	0	0	528	279	464	
6	0	0	0	0	528	267	467	
7	0	0	0	0	527	256	473	
8	0	0	0	0	526	244	476	
9	0	0	0	0	526	231	482	
10	0	0	0	0	525	218	497	
11	0	0	0	0	526	206	511	
12	0	0	0	0	528	194	522	
13	0	0	0	0	529	182	525	
14	0	0	0	0	528	171	529	
15	0	0	0	0	528	161	532	
0	0	0	0	0	527	151	536	
1	0	0	0	0	526	144	529	
2	0	0	0	0	524	136	529	
3	0	0	0	0	523	131	536	
4	0	0	0	0	520	127	532	
5	0	0	0	0	519	124	526	
6	0	0	0	0	519	123	536	
7	0	0	0	0	519	125	523	
8	0	0	0	0	518	125	520	
9	0	0	0	0	517	130	518	
10	0	0	0	0	518	134	516	
11	0	0	0	0	519	142	520	
12	0	0	0	0	518	149	523	
13	0	0	0	0	519	158	524	
14	0	0	0	0	519	168	516	
15	0	0	0	0	519	179	524	
0	0	0	0	0	519	193	542	
1	0	0	0	0	520	207	531	
2	0	0	0	0	520	221	515	
3	0	0	0	0	519	237	527	
4	0	0	0	0	517	252	534	
5	0	0	0	0	516	268	528	
6	0	0	0	0	515	283	528	
7	0	0	0	0	514	298	507	
8	0	0	0	0	513	313	495	
9	0	0	0	0	512	326	499	
10	0	0	0	0	511	339	468	
11	0	0	0	0	511	354	456	
12	0	0	0	0	512	367	442	
13	0	0	0	0	512	380	451	
14	0	0	0	0	513	392	455	
15	0	0	0	0	514	405	453	
0	0	0	0	0	514	417	506	
1	0	0	0	0	512	430	738	
2	0	0	0	0	512	442	1022	
3	0	0	0	0	511	452	1022	
4	0	0	0	0	510	463	735	
5	0	0	0	0	510	472	483	
6	0	0	0	0	510	480	391	
7	0	0	0	0	507	488	399	
8	0	0	0	0	506	496	408	
9	0	0	0	0	506	504	412	
10	0	0	0	0	508	511	410	
11	0	0	0	0	507	517	425	
12	0	0	0	0	507	524	435	
13	0	0	0	0	507	531	437	
14	0	0	0	0	509	537	445	
15	0	0	0	0	511	542	471	
0	0	0	0	0	513	547	479	
1	0	0	0	0	515	552	488	
2	0	0	0	0	517	556	493	
3	0	0	0	0	518	558	497	
4	0	0	0	0	519	559	520	
5	0	0	0	0	518	557	537	
6	0	0	0	0	516	555	542	
7	0	0	0	0	513	551	578	
8	0	0	0	0	512	547	588	
9	0	0	0	0	509	542	587	
10	0	0	0	0	506	539	600	
11	0	0	0	0	504	536	597	
12	0	0	0	0	502	535	596	
13	0	0	0	0	502	533	570	
14	0	0	0	0	502	532	526	
15	0	0	0	0	504	531	473	
0	0	0	0	0	506	529	438	
1	0	0	0	0	509	527	413	
2	0	0	0	0	513	524	403	
3	0	0	0	0	515	521	406	
4	0	0	0	0	519	519	402	
5	0	0	0	0	521	516	408	
6	0	0	0	0	524	514	419	
7	0	0	0	0	525	511	427	
8	0	0	0	0	524	509	445	
9	0	0	0	0	524	506	454	
10	0	0	0	0	523	503	453	
11	0	0	0	0	521	501	465	
12	0	0	0	0	520	499	480	
13	0	0	0	0	521	496	475	
14	0	0	0	0	522	495	488	
15	0	0	0	0	523	494	486	
0	0	0	0	0	522	494	493	
1	0	0	0	0	523	493	504	
2	0	0	0	0	524	492	494	
3	0	0	0	0	526	491	520	
4	0	0	0	0	526	489	515	
5	0	0	0	0	525	487	517	
6	0	0	0	0	526	485	518	
7	0	0	0	0	527	483	507	
8	0	0	0	0	526	481	513	
9	0	0	0	0	526	480	518	
10	0	0	0	0	526	479	518	
11	0	0	0	0	526	478	515	
12	0	0	0	0	527	478	511	
13	0	0	0	0	527	478	507	
14	0	0	0	0	527	478	517	
15	0	0	0	0	525	478	518	
0	0	0	0	0	524	478	510	
1	0	0	0	0	523	479	504	
2	0	0	0	0	522	479	504	
3	0	0	0	0	523	479	501	
4	0	0	0	0	522	479	499	
5	0	0	0	0	522	479	512	
6	0	0	0	0	521	480	499	
7	0	0	0	0	520	480	512	
8	0	0	0	0	520	480	508	
9	0	0	0	0	520	480	510	
10	0	0	0	0	520	480	508	
11	0	0	0	0	520	480	501	
12	0	0	0	0	520	480	505	
13	0	0	0	0	521	480	504	
14	0	0	0	0	523	479	509	
15	0	0	0	0	525	479	518	
0	0	0	0	0	527	478	521	
1	0	0	0	0	527	477	512	
2	0	0	0	0	526	476	508	
3	0	0	0	0	523	475	522	
4	0	0	0	0	522	474	519	
5	0	0	0	0	520	473	515	
6	0	0	0	0	520	472	524	
7	0	0	0	0	519	472	516	
8	0	0	0	0	519	471	522	
9	0	0	0	0	520	470	527	
10	0	0	0	0	517	468	527	
11	0	0	0	0	516	467	533	
12	0	0	0	0	515	465	542	
13	0	0	0	0	514	464	527	
14	0	0	0	0	514	463	534	
15	0	0	0	0	513	461	507	
0	0	0	0	0	513	460	494	
1	0	0	0	0	512	459	500	
2	0	0	0	0	512	459	489	
3	0	0	0	0	510	457	478	
4	0	0	0	0	510	456	611	
5	0	0	0	0	510	455	924	
6	0	0	0	0	512	453	1022	
7	0	0	0	0	512	452	884	
8	0	0	0	0	513	450	547	
9	0	0	0	0	513	448	387	
10	0	0	0	0	513	445	352	
11	0	0	0	0	512	443	354	
12	0	0	0	0	510	442	357	
13	0	0	0	0	510	441	373	
14	0	0	0	0	509	439	393	
15	0	0	0	0	509	436	414	
0	0	0	0	0	509	435	431	
1	0	0	0	0	509	433	440	
2	0	0	0	0	509	430	451	
3	0	0	0	0	509	427	467	
4	0	0	0	0	508	425	479	
5	0	0	0	0	509	423	484	
6	0	0	0	0	509	421	504	
7	0	0	0	0	509	419	524	
8	0	0	0	0	508	416	544	
9	0	0	0	0	507	412	552	
10	0	0	0	0	506	408	566	
11	0	0	0	0	505	403	580	
12	0	0	0	0	504	399	594	
13	0	0	0	0	504	394	605	
14	0	0	0	0	504	390	600	
15	0	0	0	0	503	386	592	
0	0	0	0	0	503	383	586	
1	0	0	0	0	504	380	540	
2	0	0	0	0	506	379	494	
3	0	0	0	0	510	377	450	
4	0	0	0	0	513	375	418	
5	0	0	0	0	516	372	406	
6	0	0	0	0	518	370	406	
7	0	0	0	0	519	367	406	
8	0	0	0	0	520	365	416	
9	0	0	0	0	519	362	430	
10	0	0	0	0	519	360	437	
11	0	0	0	0	519	358	434	
12	0	0	0	0	520	357	460	
13	0	0	0	0	521	355	465	
14	0	0	0	0	523	354	472	
15	0	0	0	0	523	353	471	
0	0	0	0	0	525	353	483	
1	0	0	0	0	526	353	493	
2	0	0	0	0	526	354	493	
3	0	0	0	0	527	357	496	
4	0	0	0	0	527	359	508	
5	0	0	0	0	529	363	510	
6	0	0	0	0	529	366	519	
7	0	0	0	0	530	369	514	
8	0	0	0	0	531	372	509	
9	0	0	0	0	532	373	503	
10	0	0	0	0	530	375	504	
11	0	0	0	0	530	377	503	
12	0	0	0	0	529	378	505	
13	0	0	0	0	529	380	506	
14	0	0	0	0	529	381	506	
15	0	0	0	0	528	383	511	
0	0	0	0	0	528	384	507	
1	0	0	0	0	527	385	510	
2	0	0	0	0	528	387	524	
3	0	0	0	0	525	388	523	
4	0	0	0	0	524	390	524	
5	0	0	0	0	522	391	519	
6	0	0	0	0	523	392	524	
7	0	0	0	0	524	393	527	
8	0	0	0	0	523	394	527	
9	0	0	0	0	524	395	526	
10	0	0	0	0	524	396	532	
11	0	0	0	0	524	397	522	
12	0	0	0	0	523	397	531	
13	0	0	0	0	524	397	518	
14	0	0	0	0	525	397	519	
15	0	0	0	0	524	397	518	
0	0	0	0	0	524	398	511	
1	0	0	0	0	525	398	511	
2	0	0	0	0	525	398	514	
3	0	0	0	0	524	398	524	
4	0	0	0	0	521	399	522	
5	0	0	0	0	519	399	518	
6	0	0	0	0	519	399	513	
7	0	0	0	0	518	399	515	
8	0	0	0	0	515	398	510	
9	0	0	0	0	515	398	510	
10	0	0	0	0	515	398	514	
11	0	0	0	0	515	397	511	
12	0	0	0	0	515	396	507	
13	0	0	0	0	516	396	505	
14	0	0	0	0	516	394	517	
15	0	0	0	0	515	393	517	
0	0	0	0	0	515	392	536	
1	0	0	0	0	515	390	533	
2	0	0	0	0	516	389	520	
3	0	0	0	0	515	388	537	
4	0	0	0	0	514	387	530	
5	0	0	0	0	513	387	528	
6	0	0	0	0	512	386	533	
7	0	0	0	0	512	385	516	
8	0	0	0	0	511	384	503	
9	0	0	0	0	510	383	671	
10	0	0	0	0	508	382	1016	
11	0	0	0	0	507	382	1022	
12	0	0	0	0	508	380	835	
13	0	0	0	0	507	379	516	
14	0	0	0	0	508	377	373	
15	0	0	0	0	509	374	352	
0	0	0	0	0	511	373	340	
1	0	0	0	0	510	372	351	
2	0	0	0	0	510	372	363	
3	0	0	0	0	510	371	379	
4	0	0	0	0	509	369	398	
5	0	0	0	0	509	367	415	
6	0	0	0	0	510	365	429	
7	0	0	0	0	510	362	439	
8	0	0	0	0	510	359	460	
9	0	0	0	0	508	358	480	
10	0	0	0	0	509	355	486	
11	0	0	0	0	509	353	497	
12	0	0	0	0	509	350	507	
13	0	0	0	0	508	346	532	
14	0	0	0	0	506	343	529	
15	0	0	0	0	504	339	542	
0	0	0	0	0	505	335	572	
1	0	0	0	0	506	331	580	
2	0	0	0	0	507	327	577	
3	0	0	0	0	508	323	582	
4	0	0	0	0	508	321	585	
5	0	0	0	0	507	318	571	
6	0	0	0	0	508	316	525	
7	0	0	0	0	510	314	476	
8	0	0	0	0	511	313	435	
9	0	0	0	0	512	311	403	
10	0	0	0	0	513	311	398	
11	0	0	0	0	515	310	396	
12	0	0	0	0	516	309	398	
13	0	0	0	0	515	308	421	
14	0	0	0	0	516	307	434	
15	0	0	0	0	519	306	443	
0	0	0	0	0	522	306	454	
1	0	0	0	0	524	305	456	
2	0	0	0	0	524	305	455	
3	0	0	0	0	524	306	468	
4	0	0	0	0	523	306	477	
5	0	0	0	0	524	307	491	
6	0	0	0	0	525	310	493	
7	0	0	0	0	526	312	490	
8	0	0	0	0	528	315	497	
9	0	0	0	0	529	319	526	
10	0	0	0	0	529	321	521	
11	0	0	0	0	528	323	521	
12	0	0	0	0	527	326	527	
13	0	0	0	0	527	326	525	
14	0	0	0	0	525	328	524	
15	0	0	0	0	526	329	518	
0	0	0	0	0	527	331	522	
1	0	0	0	0	528	332	517	
2	0	0	0	0	528	334	515	
3	0	0	0	0	526	335	513	
4	0	0	0	0	526	338	511	
5	0	0	0	0	527	340	511	
6	0	0	0	0	525	343	527	
7	0	0	0	0	526	345	528	
8	0	0	0	0	526	348	509	
9	0	0	0	0	526	352	527	
10	0	0	0	0	524	353	528	
11	0	0	0	0	522	356	530	
12	0	0	0	0	521	359	523	
13	0	0	0	0	520	362	523	
14	0	0	0	0	521	364	523	
15	0	0	0	0	523	367	519	
0	0	0	0	0	524	369	514	
1	0	0	0	0	525	370	515	
2	0	0	0	0	525	373	512	
3	0	0	0	0	526	374	516	
4	0	0	0	0	525	375	510	
5	0	0	0	0	524	376	508	
6	0	0	0	0	521	378	518	
7	0	0	0	0	519	379	523	
8	0	0	0	0	516	380	520	
9	0	0	0	0	515	381	512	
10	0	0	0	0	514	381	516	
11	0	0	0	0	513	382	518	
12	0	0	0	0	513	382	513	
13	0	0	0	0	513	383	521	
14	0	0	0	0	514	382	516	
15	0	0	0	0	516	383	515	
0	0	0	0	0	518	383	516	
1	0	0	0	0	517	382	521	
2	0	0	0	0	518	381	519	
3	0	0	0	0	519	380	510	
4	0	0	0	0	518	380	532	
5	0	0	0	0	515	378	527	
6	0	0	0	0	515	377	531	
7	0	0	0	0	515	376	533	
8	0	0	0	0	512	376	521	
9	0	0	0	0	512	376	518	
10	0	0	0	0	512	376	506	
11	0	0	0	0	512	376	497	
12	0	0	0	0	511	376	487	
13	0	0	0	0	510	377	472	
14	0	0	0	0	510	378	487	
15	0	0	0	0	510	380	669	
0	0	0	0	0	509	382	1015	
1	0	0	0	0	510	385	1022	
2	0	0	0	0	511	387	785	
3	0	0	0	0	511	390	484	
4	0	0	0	0	511	391	350	
5	0	0	0	0	509	394	339	
6	0	0	0	0	510	396	331	
7	0	0	0	0	509	399	352	
8	0	0	0	0	508	404	359	
9	0	0	0	0	508	406	380	
10	0	0	0	0	509	408	387	
11	0	0	0	0	508	409	428	
12	0	0	0	0	508	411	438	
13	0	0	0	0	507	412	443	
14	0	0	0	0	508	414	466	
15	0	0	0	0	508	417	474	
0	0	0	0	0	507	420	497	
1	0	0	0	0	506	422	502	
2	0	0	0	0	507	424	522	
3	0	0	0	0	507	425	538	
4	0	0	0	0	507	425	554	
5	0	0	0	0	508	423	556	
6	0	0	0	0	508	420	569	
7	0	0	0	0	511	416	577	
8	0	0	0	0	511	411	584	
9	0	0	0	0	511	407	585	
10	0	0	0	0	512	404	575	
11	0	0	0	0	513	403	557	
12	0	0	0	0	512	402	506	
13	0	0	0	0	513	401	487	
14	0	0	0	0	514	401	442	
15	0	0	0	0	514	400	421	
0	0	0	0	0	515	399	403	
1	0	0	0	0	515	397	410	
2	0	0	0	0	517	396	392	
3	0	0	0	0	521	394	412	
4	0	0	0	0	523	392	415	
5	0	0	0	0	525	391	436	
6	0	0	0	0	526	391	454	
7	0	0	0	0	526	390	466	
8	0	0	0	0	525	391	457	
9	0	0	0	0	525	391	461	
10	0	0	0	0	524	393	471	
11	0	0	0	0	523	395	486	
12	0	0	0	0	521	397	486	
13	0	0	0	0	520	400	472	
14	0	0	0	0	520	404	492	
15	0	0	0	0	520	408	486	
0	0	0	0	0	520	410	492	
1	0	0	0	0	519	413	504	
2	0	0	0	0	521	415	497	
3	0	0	0	0	519	417	499	
4	0	0	0	0	519	419	511	
5	0	0	0	0	519	421	509	
6	0	0	0	0	520	423	506	
7	0	0	0	0	519	426	504	
8	0	0	0	0	519	428	493	
9	0	0	0	0	520	431	503	
10	0	0	0	0	521	434	502	
11	0	0	0	0	522	436	499	
12	0	0	0	0	522	440	499	
13	0	0	0	0	523	443	502	
14	0	0	0	0	525	446	505	
15	0	0	0	0	524	448	512	
0	0	0	0	0	525	451	516	
1	0	0	0	0	527	454	519	
2	0	0	0	0	527	456	531	
3	0	0	0	0	527	458	527	
4	0	0	0	0	529	461	519	
5	0	0	0	0	530	463	527	
6	0	0	0	0	529	465	530	
7	0	0	0	0	529	468	536	
8	0	0	0	0	529	471	529	
9	0	0	0	0	529	473	536	
10	0	0	0	0	530	476	539	
11	0	0	0	0	528	478	542	
12	0	0	0	0	526	480	544	
13	0	0	0	0	523	483	530	
14	0	0	0	0	523	486	542	
15	0	0	0	0	523	488	533	
0	0	0	0	0	523	489	535	
1	0	0	0	0	523	490	538	
2	0	0	0	0	523	491	530	
3	0	0	0	0	523	492	534	
4	0	0	0	0	520	494	527	
5	0	0	0	0	519	495	519	
6	0	0	0	0	518	497	518	
7	0	0	0	0	516	499	505	
8	0	0	0	0	514	500	511	
9	0	0	0	0	512	503	509	
10	0	0	0	0	513	505	501	
11	0	0	0	0	514	506	527	
12	0	0	0	0	514	507	523	
13	0	0	0	0	513	508	515	
14	0	0	0	0	513	509	505	
15	0	0	0	0	513	509	511	
0	0	0	0	0	513	510	516	
1	0	0	0	0	515	510	498	
2	0	0	0	0	515	511	492	
3	0	0	0	0	515	511	631	
4	0	0	0	0	515	511	938	
5	0	0	0	0	514	511	1022	
6	0	0	0	0	514	511	813	
7	0	0	0	0	513	511	521	
8	0	0	0	0	513	511	367	
9	0	0	0	0	514	512	325	
10	0	0	0	0	513	513	347	
11	0	0	0	0	513	517	358	
12	0	0	0	0	513	520	356	
13	0	0	0	0	514	524	372	
14	0	0	0	0	513	529	400	
15	0	0	0	0	513	535	408	
0	0	0	0	0	512	539	436	
1	0	0	0	0	512	541	455	
2	0	0	0	0	512	543	481	
3	0	0	0	0	511	545	489	
4	0	0	0	0	508	546	493	
5	0	0	0	0	509	546	512	
6	0	0	0	0	508	546	520	
7	0	0	0	0	508	544	534	
8	0	0	0	0	508	541	549	
9	0	0	0	0	508	536	568	
10	0	0	0	0	509	530	595	
11	0	0	0	0	509	522	595	
12	0	0	0	0	511	514	603	
13	0	0	0	0	512	507	602	
14	0	0	0	0	512	500	589	
15	0	0	0	0	512	495	579	
0	0	0	0	0	514	490	539	
1	0	0	0	0	514	486	499	
2	0	0	0	0	515	482	455	
3	0	0	0	0	517	478	434	
4	0	0	0	0	520	474	406	
5	0	0	0	0	522	470	419	
6	0	0	0	0	526	465	419	
7	0	0	0	0	530	460	435	
8	0	0	0	0	534	456	437	
9	0	0	0	0	537	452	435	
10	0	0	0	0	542	448	446	
11	0	0	0	0	545	444	455	
12	0	0	0	0	548	439	460	
13	0	0	0	0	551	435	470	
14	0	0	0	0	552	431	483	
15	0	0	0	0	553	428	494	
0	0	0	0	0	551	425	495	
1	0	0	0	0	552	422	504	
2	0	0	0	0	551	420	514	
3	0	0	0	0	550	419	525	
4	0	0	0	0	549	419	521	
5	0	0	0	0	546	418	528	
6	0	0	0	0	544	418	521	
7	0	0	0	0	541	417	512	
8	0	0	0	0	537	417	505	
9	0	0	0	0	536	417	496	
10	0	0	0	0	536	417	484	
11	0	0	0	0	536	418	484	
12	0	0	0	0	537	419	493	
13	0	0	0	0	536	418	484	
14	0	0	0	0	535	417	479	
15	0	0	0	0	532	417	476	
0	0	0	0	0	531	415	481	
1	0	0	0	0	531	414	495	
2	0	0	0	0	532	413	520	
3	0	0	0	0	534	412	534	
4	0	0	0	0	535	411	537	
5	0	0	0	0	537	411	551	
6	0	0	0	0	539	410	545	
7	0	0	0	0	540	409	531	
8	0	0	0	0	539	409	525	
9	0	0	0	0	539	409	528	
10	0	0	0	0	539	410	527	
11	0	0	0	0	537	412	519	
12	0	0	0	0	539	414	518	
13	0	0	0	0	538	417	518	
14	0	0	0	0	537	420	518	
15	0	0	0	0	537	423	511	
0	0	0	0	0	536	426	515	
1	0	0	0	0	535	428	519	
2	0	0	0	0	532	432	519	
3	0	0	0	0	529	434	512	
4	0	0	0	0	527	436	518	
5	0	0	0	0	527	438	499	
6	0	0	0	0	527	439	525	
7	0	0	0	0	527	441	515	
8	0	0	0	0	526	442	514	
9	0	0	0	0	526	443	514	
10	0	0	0	0	525	444	514	
11	0	0	0	0	524	444	522	
12	0	0	0	0	524	446	540	
13	0	0	0	0	523	446	533	
14	0	0	0	0	522	447	543	
15	0	0	0	0	523	448	531	
0	0	0	0	0	524	449	530	
1	0	0	0	0	524	449	521	
2	0	0	0	0	524	450	509	
3	0	0	0	0	523	451	524	
4	0	0	0	0	522	451	508	
5	0	0	0	0	523	451	487	
6	0	0	0	0	523	451	611	
7	0	0	0	0	524	450	937	
8	0	0	0	0	524	450	1022	
9	0	0	0	0	526	449	911	
10	0	0	0	0	524	448	556	
11	0	0	0	0	522	446	391	
12	0	0	0	0	519	445	336	
13	0	0	0	0	517	444	347	
14	0	0	0	0	517	445	353	
15	0	0	0	0	517	446	367	
0	0	0	0	0	518	446	371	
1	0	0	0	0	519	445	399	
2	0	0	0	0	518	444	432	
3	0	0	0	0	518	443	433	
4	0	0	0	0	518	441	434	
5	0	0	0	0	517	440	446	
6	0	0	0	0	519	438	468	
7	0	0	0	0	520	437	486	
8	0	0	0	0	520	436	484	
9	0	0	0	0	520	435	499	
10	0	0	0	0	520	434	526	
11	0	0	0	0	520	432	544	
12	0	0	0	0	519	430	559	
13	0	0	0	0	518	428	572	
14	0	0	0	0	518	424	587	
15	0	0	0	0	517	422	596	
0	0	0	0	0	518	419	593	
1	0	0	0	0	517	418	583	
2	0	0	0	0	519	416	565	
3	0	0	0	0	520	416	533	
4	0	0	0	0	520	416	476	
5	0	0	0	0	521	416	436	
6	0	0	0	0	523	416	411	
7	0	0	0	0	524	416	397	
8	0	0	0	0	525	416	398	
9	0	0	0	0	528	415	408	
10	0	0	0	0	531	414	419	
11	0	0	0	0	535	414	430	
12	0	0	0	0	536	413	438	
13	0	0	0	0	538	412	444	
14	0	0	0	0	540	413	454	
15	0	0	0	0	542	412	457	
0	0	0	0	0	545	412	466	
1	0	0	0	0	546	413	477	
2	0	0	0	0	548	414	494	
3	0	0	0	0	551	415	499	
4	0	0	0	0	551	416	508	
5	0	0	0	0	554	418	502	
6	0	0	0	0	556	420	505	
7	0	0	0	0	560	422	515	
8	0	0	0	0	562	424	522	
9	0	0	0	0	566	425	518	
10	0	0	0	0	568	426	517	
11	0	0	0	0	569	427	520	
12	0	0	0	0	570	428	523	
13	0	0	0	0	570	428	527	
14	0	0	0	0	569	428	523	
15	0	0	0	0	568	428	516	
0	0	0	0	0	567	429	523	
1	0	0	0	0	563	430	519	
2	0	0	0	0	562	431	505	
3	0	0	0	0	560	432	508	
4	0	0	0	0	559	432	513	
5	0	0	0	0	556	433	518	
6	0	0	0	0	553	433	519	
7	0	0	0	0	551	434	524	
8	0	0	0	0	549	434	529	
9	0	0	0	0	549	434	534	
10	0	0	0	0	548	434	522	
11	0	0	0	0	547	434	522	
12	0	0	0	0	547	435	518	
13	0	0	0	0	547	435	517	
14	0	0	0	0	548	434	510	
15	0	0	0	0	548	434	518	
0	0	0	0	0	547	434	509	
1	0	0	0	0	547	434	514	
2	0	0	0	0	549	434	513	
3	0	0	0	0	551	434	523	
4	0	0	0	0	550	434	526	
5	0	0	0	0	549	434	519	
6	0	0	0	0	547	434	530	
7	0	0	0	0	544	434	531	
8	0	0	0	0	543	435	529	
9	0	0	0	0	543	435	529	
10	0	0	0	0	543	436	528	
11	0	0	0	0	544	438	515	
12	0	0	0	0	543	440	517	
13	0	0	0	0	543	443	517	
14	0	0	0	0	540	445	519	
15	0	0	0	0	539	447	523	
0	0	0	0	0	536	449	527	
1	0	0	0	0	534	450	551	
2	0	0	0	0	532	451	545	
3	0	0	0	0	532	454	529	
4	0	0	0	0	531	455	533	
5	0	0	0	0	530	458	515	
6	0	0	0	0	531	460	513	
7	0	0	0	0	530	462	515	
8	0	0	0	0	531	464	484	
9	0	0	0	0	532	466	499	
10	0	0	0	0	534	467	685	
11	0	0	0	0	535	469	1022	
12	0	0	0	0	536	470	1022	
13	0	0	0	0	536	472	777	
14	0	0	0	0	535	472	495	
15	0	0	0	0	535	472	364	
0	0	0	0	0	533	472	340	
1	0	0	0	0	531	472	339	
2	0	0	0	0	529	474	348	
3	0	0	0	0	528	476	359	
4	0	0	0	0	528	478	366	
5	0	0	0	0	527	481	391	
6	0	0	0	0	527	484	411	
7	0	0	0	0	527	487	428	
8	0	0	0	0	527	491	435	
9	0	0	0	0	526	494	451	
10	0	0	0	0	523	498	459	
11	0	0	0	0	521	503	479	
12	0	0	0	0	520	506	489	
13	0	0	0	0	519	509	502	
14	0	0	0	0	517	510	518	
15	0	0	0	0	514	511	533	
0	0	0	0	0	512	510	544	
1	0	0	0	0	514	508	564	
2	0	0	0	0	517	507	572	
3	0	0	0	0	519	506	576	
4	0	0	0	0	521	507	578	
5	0	0	0	0	523	507	571	
6	0	0	0	0	524	510	546	
7	0	0	0	0	523	513	495	
8	0	0	0	0	521	516	450	
9	0	0	0	0	521	520	421	
10	0	0	0	0	525	524	396	
11	0	0	0	0	527	527	378	
12	0	0	0	0	531	531	378	
13	0	0	0	0	535	534	392	
14	0	0	0	0	540	537	398	
15	0	0	0	0	542	539	416	
0	0	0	0	0	543	541	435	
1	0	0	0	0	547	543	439	
2	0	0	0	0	550	545	448	
3	0	0	0	0	552	548	449	
4	0	0	0	0	556	553	465	
5	0	0	0	0	558	558	476	
6	0	0	0	0	560	564	478	
7	0	0	0	0	562	570	487	
8	0	0	0	0	563	577	504	
9	0	0	0	0	564	584	504	
10	0	0	0	0	565	590	508	
11	0	0	0	0	564	596	518	
12	0	0	0	0	563	601	516	
13	0	0	0	0	561	605	525	
14	0	0	0	0	561	608	528	
15	0	0	0	0	561	611	522	
0	0	0	0	0	561	615	526	
1	0	0	0	0	562	617	519	
2	0	0	0	0	563	620	519	
3	0	0	0	0	563	623	520	
4	0	0	0	0	563	625	519	
5	0	0	0	0	564	628	517	
6	0	0	0	0	564	630	522	
7	0	0	0	0	566	632	525	
8	0	0	0	0	566	634	533	
9	0	0	0	0	565	636	528	
10	0	0	0	0	564	636	525	
11	0	0	0	0	562	637	511	
12	0	0	0	0	561	637	518	
13	0	0	0	0	559	637	513	
14	0	0	0	0	558	637	526	
15	0	0	0	0	559	637	527	
0	0	0	0	0	559	636	527	
1	0	0	0	0	558	636	522	
2	0	0	0	0	556	635	527	
3	0	0	0	0	556	635	525	
4	0	0	0	0	557	635	521	
5	0	0	0	0	557	635	521	
6	0	0	0	0	557	635	537	
7	0	0	0	0	556	634	512	
8	0	0	0	0	555	634	538	
9	0	0	0	0	553	633	520	
10	0	0	0	0	551	633	524	
11	0	0	0	0	548	632	529	
12	0	0	0	0	546	632	522	
13	0	0	0	0	545	631	519	
14	0	0	0	0	543	630	515	
15	0	0	0	0	543	630	510	
0	0	0	0	0	543	629	527	
1	0	0	0	0	543	628	526	
2	0	0	0	0	542	628	528	
3	0	0	0	0	542	628	540	
4	0	0	0	0	540	628	535	
5	0	0	0	0	539	627	531	
6	0	0	0	0	539	628	516	
7	0	0	0	0	539	628	515	
8	0	0	0	0	539	628	514	
9	0	0	0	0	539	628	506	
10	0	0	0	0	537	628	474	
11	0	0	0	0	536	628	582	
12	0	0	0	0	534	628	863	
13	0	0	0	0	532	627	1022	
14	0	0	0	0	531	627	919	
15	0	0	0	0	531	627	619	
0	0	0	0	0	529	626	427	
1	0	0	0	0	530	624	355	
2	0	0	0	0	531	622	360	
3	0	0	0	0	531	621	368	
4	0	0	0	0	530	620	380	
5	0	0	0	0	529	620	404	
6	0	0	0	0	532	621	424	
7	0	0	0	0	532	623	444	
8	0	0	0	0	531	624	458	
9	0	0	0	0	531	624	470	
10	0	0	0	0	529	624	488	
11	0	0	0	0	527	623	501	
12	0	0	0	0	524	623	506	
13	0	0	0	0	523	623	508	
14	0	0	0	0	523	623	516	
15	0	0	0	0	522	621	530	
0	0	0	0	0	520	620	545	
1	0	0	0	0	519	616	564	
2	0	0	0	0	519	612	576	
3	0	0	0	0	517	608	573	
4	0	0	0	0	516	604	591	
5	0	0	0	0	516	600	591	
6	0	0	0	0	518	596	590	
7	0	0	0	0	519	592	578	
8	0	0	0	0	519	590	551	
9	0	0	0	0	520	587	498	
10	0	0	0	0	520	584	454	
11	0	0	0	0	521	582	421	
12	0	0	0	0	523	579	401	
13	0	0	0	0	527	576	399	
14	0	0	0	0	530	573	402	
15	0	0	0	0	533	570	408	
0	0	0	0	0	538	567	412	
1	0	0	0	0	541	564	426	
2	0	0	0	0	545	561	444	
3	0	0	0	0	548	559	449	
4	0	0	0	0	553	557	451	
5	0	0	0	0	556	555	465	
6	0	0	0	0	560	553	467	
7	0	0	0	0	560	551	477	
8	0	0	0	0	563	551	481	
9	0	0	0	0	564	549	494	
10	0	0	0	0	565	549	495	
11	0	0	0	0	565	549	501	
12	0	0	0	0	565	550	504	
13	0	0	0	0	567	550	506	
14	0	0	0	0	568	551	507	
15	0	0	0	0	568	551	508	
0	0	0	0	0	567	550	508	
1	0	0	0	0	568	548	514	
2	0	0	0	0	567	547	506	
3	0	0	0	0	566	547	509	
4	0	0	0	0	565	545	510	
5	0	0	0	0	564	544	510	
6	0	0	0	0	563	543	502	
7	0	0	0	0	564	543	510	
8	0	0	0	0	563	543	508	
9	0	0	0	0	561	543	512	
10	0	0	0	0	559	542	510	
11	0	0	0	0	558	542	508	
12	0	0	0	0	558	541	508	
13	0	0	0	0	559	540	510	
14	0	0	0	0	558	540	521	
15	0	0	0	0	558	539	522	
0	0	0	0	0	556	538	520	
1	0	0	0	0	554	537	519	
2	0	0	0	0	552	535	529	
3	0	0	0	0	550	533	528	
4	0	0	0	0	548	531	525	
5	0	0	0	0	546	529	531	
6	0	0	0	0	545	527	522	
7	0	0	0	0	544	525	525	
8	0	0	0	0	543	522	527	
9	0	0	0	0	543	519	521	
10	0	0	0	0	542	517	510	
11	0	0	0	0	540	514	525	
12	0	0	0	0	541	511	527	
13	0	0	0	0	542	507	526	
14	0	0	0	0	541	504	520	
15	0	0	0	0	541	499	527	
0	0	0	0	0	541	495	535	
1	0	0	0	0	540	491	529	
2	0	0	0	0	538	486	537	
3	0	0	0	0	537	481	538	
4	0	0	0	0	536	476	527	
5	0	0	0	0	534	471	529	
6	0	0	0	0	532	466	526	
7	0	0	0	0	531	461	526	
8	0	0	0	0	530	457	531	
9	0	0	0	0	529	453	534	
10	0	0	0	0	526	450	522	
11	0	0	0	0	525	446	526	
12	0	0	0	0	524	443	512	
13	0	0	0	0	523	440	500	
14	0	0	0	0	524	436	507	
15	0	0	0	0	525	433	472	
0	0	0	0	0	527	431	548	
1	0	0	0	0	527	428	806	
2	0	0	0	0	528	427	1022	
3	0	0	0	0	528	425	1018	
4	0	0	0	0	528	423	637	
5	0	0	0	0	527	422	414	
6	0	0	0	0	524	420	328	
7	0	0	0	0	523	419	334	
8	0	0	0	0	522	419	343	
9	0	0	0	0	521	421	356	
10	0	0	0	0	518	422	373	
11	0	0	0	0	515	421	397	
12	0	0	0	0	514	420	411	
13	0	0	0	0	514	420	432	
14	0	0	0	0	512	419	440	
15	0	0	0	0	512	419	457	
0	0	0	0	0	512	419	475	
1	0	0	0	0	513	419	478	
2	0	0	0	0	512	420	491	
3	0	0	0	0	511	421	504	
4	0	0	0	0	511	421	506	
5	0	0	0	0	511	420	543	
6	0	0	0	0	512	419	550	
7	0	0	0	0	511	417	563	
8	0	0	0	0	510	415	580	
9	0	0	0	0	510	413	581	
10	0	0	0	0	511	412	585	
11	0	0	0	0	511	411	583	
12	0	0	0	0	511	411	578	
13	0	0	0	0	511	411	545	
14	0	0	0	0	511	412	504	
15	0	0	0	0	513	414	464	
0	0	0	0	0	515	414	424	
1	0	0	0	0	516	415	411	
2	0	0	0	0	520	415	391	
3	0	0	0	0	525	416	398	
4	0	0	0	0	529	416	410	
5	0	0	0	0	536	415	418	
6	0	0	0	0	541	414	430	
7	0	0	0	0	547	414	434	
8	0	0	0	0	551	414	447	
9	0	0	0	0	554	414	460	
10	0	0	0	0	557	414	463	
11	0	0	0	0	560	414	469	
12	0	0	0	0	563	414	480	
13	0	0	0	0	567	414	486	
14	0	0	0	0	569	415	495	
15	0	0	0	0	570	417	499	
0	0	0	0	0	572	418	501	
1	0	0	0	0	575	420	511	
2	0	0	0	0	576	421	515	
3	0	0	0	0	578	422	515	
4	0	0	0	0	580	422	517	
5	0	0	0	0	581	421	517	
6	0	0	0	0	581	420	521	
7	0	0	0	0	579	419	526	
8	0	0	0	0	577	418	528	
9	0	0	0	0	575	416	527	
10	0	0	0	0	575	415	526	
11	0	0	0	0	571	414	516	
12	0	0	0	0	569	413	523	
13	0	0	0	0	567	413	518	
14	0	0	0	0	566	413	515	
15	0	0	0	0	564	412	514	
0	0	0	0	0	563	411	523	
1	0	0	0	0	562	410	516	
2	0	0	0	0	560	409	515	
3	0	0	0	0	558	407	512	
4	0	0	0	0	557	405	513	
5	0	0	0	0	556	403	511	
6	0	0	0	0	555	402	507	
7	0	0	0	0	553	401	504	
8	0	0	0	0	555	399	514	
9	0	0	0	0	554	398	507	
10	0	0	0	0	552	396	505	
11	0	0	0	0	553	395	515	
12	0	0	0	0	553	394	506	
13	0	0	0	0	552	392	521	
14	0	0	0	0	551	391	515	
15	0	0	0	0	550	390	515	
0	0	0	0	0	550	389	516	
1	0	0	0	0	550	388	515	
2	0	0	0	0	548	387	514	
3	0	0	0	0	545	387	512	
4	0	0	0	0	543	385	521	
5	0	0	0	0	542	384	524	
6	0	0	0	0	540	383	519	
7	0	0	0	0	539	383	518	
8	0	0	0	0	537	381	527	
9	0	0	0	0	537	380	528	
10	0	0	0	0	536	378	518	
11	0	0	0	0	534	377	520	
12	0	0	0	0	531	375	518	
13	0	0	0	0	529	372	518	
14	0	0	0	0	529	371	519	
15	0	0	0	0	528	368	521	
0	0	0	0	0	526	367	526	
1	0	0	0	0	526	365	526	
2	0	0	0	0	526	363	522	
3	0	0	0	0	525	361	515	
4	0	0	0	0	525	359	511	
5	0	0	0	0	524	356	492	
6	0	0	0	0	523	354	481	
7	0	0	0	0	524	352	606	
8	0	0	0	0	522	350	925	
9	0	0	0	0	519	348	1022	
10	0	0	0	0	518	346	912	
11	0	0	0	0	516	344	541	
12	0	0	0	0	515	340	383	
13	0	0	0	0	514	336	341	
14	0	0	0	0	515	335	328	
15	0	0	0	0	514	333	344	
0	0	0	0	0	514	333	355	
1	0	0	0	0	512	331	374	
2	0	0	0	0	511	329	387	
3	0	0	0	0	509	327	416	
4	0	0	0	0	509	325	427	
5	0	0	0	0	509	322	438	
6	0	0	0	0	510	320	452	
7	0	0	0	0	511	318	478	
8	0	0	0	0	511	316	482	
9	0	0	0	0	510	314	481	
10	0	0	0	0	511	312	505	
11	0	0	0	0	512	310	517	
12	0	0	0	0	511	306	531	
13	0	0	0	0	511	303	551	
14	0	0	0	0	511	299	564	
15	0	0	0	0	511	294	583	
0	0	0	0	0	511	291	594	
1	0	0	0	0	510	286	593	
2	0	0	0	0	510	283	591	
3	0	0	0	0	508	280	574	
4	0	0	0	0	506	277	534	
5	0	0	0	0	504	275	490	
6	0	0	0	0	505	273	446	
7	0	0	0	0	507	271	416	
8	0	0	0	0	508	271	402	
9	0	0	0	0	512	269	395	
10	0	0	0	0	517	267	404	
11	0	0	0	0	521	265	415	
12	0	0	0	0	526	263	424	
13	0	0	0	0	529	262	436	
14	0	0	0	0	535	261	438	
15	0	0	0	0	541	260	448	
0	0	0	0	0	545	259	457	
1	0	0	0	0	550	258	465	
2	0	0	0	0	554	259	472	
3	0	0	0	0	558	259	494	
4	0	0	0	0	561	261	505	
5	0	0	0	0	564	263	512	
6	0	0	0	0	568	264	500	
7	0	0	0	0	569	268	494	
8	0	0	0	0	569	270	536	
9	0	0	0	0	570	272	528	
10	0	0	0	0	571	274	529	
11	0	0	0	0	572	276	527	
12	0	0	0	0	573	277	527	
13	0	0	0	0	573	278	526	
14	0	0	0	0	572	279	527	
15	0	0	0	0	571	281	522	
0	0	0	0	0	570	281	519	
1	0	0	0	0	569	283	521	
2	0	0	0	0	566	284	524	
3	0	0	0	0	563	285	525	
4	0	0	0	0	561	286	524	
5	0	0	0	0	560	287	523	
6	0	0	0	0	559	289	523	
7	0	0	0	0	558	291	527	
8	0	0	0	0	557	292	531	
9	0	0	0	0	557	293	530	
10	0	0	0	0	557	295	520	
11	0	0	0	0	557	295	528	
12	0	0	0	0	556	297	525	
13	0	0	0	0	555	298	516	
14	0	0	0	0	554	299	515	
15	0	0	0	0	552	301	521	
0	0	0	0	0	549	302	518	
1	0	0	0	0	547	303	510	
2	0	0	0	0	545	305	518	
3	0	0	0	0	543	306	520	
4	0	0	0	0	541	308	519	
5	0	0	0	0	539	309	522	
6	0	0	0	0	538	310	524	
7	0	0	0	0	537	312	528	
8	0	0	0	0	536	313	530	
9	0	0	0	0	536	314	527	
10	0	0	0	0	537	315	519	
11	0	0	0	0	536	317	524	
12	0	0	0	0	535	318	523	
13	0	0	0	0	534	319	511	
14	0	0	0	0	531	321	515	
15	0	0	0	0	529	323	512	
0	0	0	0	0	527	324	508	
1	0	0	0	0	525	326	507	
2	0	0	0	0	524	328	507	
3	0	0	0	0	523	330	504	
4	0	0	0	0	522	332	510	
5	0	0	0	0	518	334	508	
6	0	0	0	0	516	336	515	
7	0	0	0	0	513	338	519	
8	0	0	0	0	514	339	524	
9	0	0	0	0	515	341	519	
10	0	0	0	0	516	342	513	
11	0	0	0	0	518	344	505	
12	0	0	0	0	518	344	496	
13	0	0	0	0	517	345	495	
14	0	0	0	0	516	347	476	
15	0	0	0	0	515	348	521	
0	0	0	0	0	512	349	731	
1	0	0	0	0	510	349	1022	
2	0	0	0	0	510	350	1022	
3	0	0	0	0	509	351	698	
4	0	0	0	0	507	350	452	
5	0	0	0	0	508	349	344	
6	0	0	0	0	508	348	336	
7	0	0	0	0	508	350	333	
8	0	0	0	0	508	350	353	
9	0	0	0	0	508	352	356	
10	0	0	0	0	508	352	369	
11	0	0	0	0	507	352	391	
12	0	0	0	0	503	353	432	
13	0	0	0	0	500	352	436	
14	0	0	0	0	499	352	455	
15	0	0	0	0	499	352	465	
0	0	0	0	0	496	352	488	
1	0	0	0	0	495	353	503	
2	0	0	0	0	495	354	505	
3	0	0	0	0	496	355	510	
4	0	0	0	0	496	355	532	
5	0	0	0	0	496	355	555	
6	0	0	0	0	496	354	576	
7	0	0	0	0	495	354	580	
8	0	0	0	0	494	353	588	
9	0	0	0	0	492	353	595	
10	0	0	0	0	494	355	596	
11	0	0	0	0	495	356	584	
12	0	0	0	0	496	359	561	
13	0	0	0	0	499	361	521	
14	0	0	0	0	501	364	476	
15	0	0	0	0	503	367	425	
0	0	0	0	0	507	370	413	
1	0	0	0	0	509	372	411	
2	0	0	0	0	514	375	414	
3	0	0	0	0	519	377	420	
4	0	0	0	0	524	379	434	
5	0	0	0	0	529	379	440	
6	0	0	0	0	536	380	444	
7	0	0	0	0	541	381	451	
8	0	0	0	0	544	383	454	
9	0	0	0	0	548	384	473	
10	0	0	0	0	550	386	480	
11	0	0	0	0	553	388	489	
12	0	0	0	0	556	391	494	
13	0	0	0	0	559	395	484	
14	0	0	0	0	560	400	496	
15	0	0	0	0	562	405	498	
0	0	0	0	0	562	410	505	
1	0	0	0	0	561	415	505	
2	0	0	0	0	561	419	505	
3	0	0	0	0	562	423	507	
4	0	0	0	0	562	427	511	
5	0	0	0	0	563	430	504	
6	0	0	0	0	563	433	505	
7	0	0	0	0	562	436	511	
8	0	0	0	0	561	439	509	
9	0	0	0	0	560	442	509	
10	0	0	0	0	560	445	502	
11	0	0	0	0	559	449	512	
12	0	0	0	0	558	452	515	
13	0	0	0	0	557	455	514	
14	0	0	0	0	556	456	504	
15	0	0	0	0	554	458	519	
0	0	0	0	0	553	459	512	
1	0	0	0	0	553	459	515	
2	0	0	0	0	552	459	508	
3	0	0	0	0	549	458	520	
4	0	0	0	0	546	457	522	
5	0	0	0	0	544	457	515	
6	0	0	0	0	544	457	517	
7	0	0	0	0	543	457	513	
8	0	0	0	0	542	456	515	
9	0	0	0	0	541	457	506	
10	0	0	0	0	539	456	516	
11	0	0	0	0	536	456	518	
12	0	0	0	0	532	456	518	
13	0	0	0	0	531	457	508	
14	0	0	0	0	531	457	515	
15	0	0	0	0	529	459	513	
0	0	0	0	0	527	460	515	
1	0	0	0	0	527	460	507	
2	0	0	0	0	527	460	520	
3	0	0	0	0	527	461	522	
4	0	0	0	0	526	463	514	
5	0	0	0	0	525	464	510	
6	0	0	0	0	524	465	517	
7	0	0	0	0	524	467	515	
8	0	0	0	0	521	469	519	
9	0	0	0	0	521	471	511	
10	0	0	0	0	521	473	503	
11	0	0	0	0	522	475	504	
12	0	0	0	0	520	478	509	
13	0	0	0	0	519	480	508	
14	0	0	0	0	518	483	506	
15	0	0	0	0	516	486	511	
0	0	0	0	0	515	488	524	
1	0	0	0	0	512	492	523	
2	0	0	0	0	509	496	509	
3	0	0	0	0	505	500	510	
4	0	0	0	0	503	504	522	
5	0	0	0	0	502	507	509	
6	0	0	0	0	501	511	500	
7	0	0	0	0	500	514	660	
8	0	0	0	0	502	518	971	
9	0	0	0	0	503	521	1022	
10	0	0	0	0	505	525	816	
11	0	0	0	0	506	528	511	
12	0	0	0	0	506	530	378	
13	0	0	0	0	509	531	343	
14	0	0	0	0	509	532	355	
15	0	0	0	0	508	533	350	
0	0	0	0	0	506	534	386	
1	0	0	0	0	505	534	404	
2	0	0	0	0	503	535	416	
3	0	0	0	0	500	538	430	
4	0	0	0	0	499	540	440	
5	0	0	0	0	498	541	459	
6	0	0	0	0	497	541	464	
7	0	0	0	0	498	542	486	
8	0	0	0	0	497	544	493	
9	0	0	0	0	497	544	505	
10	0	0	0	0	497	543	519	
11	0	0	0	0	497	541	536	
12	0	0	0	0	496	536	538	
13	0	0	0	0	494	530	571	
14	0	0	0	0	493	524	584	
15	0	0	0	0	492	517	597	
0	0	0	0	0	489	511	601	
1	0	0	0	0	488	505	596	
2	0	0	0	0	488	500	593	
3	0	0	0	0	489	497	574	
4	0	0	0	0	489	495	535	
5	0	0	0	0	490	492	478	
6	0	0	0	0	493	489	446	
7	0	0	0	0	494	487	420	
8	0	0	0	0	497	484	403	
9	0	0	0	0	503	480	396	
10	0	0	0	0	507	478	403	
11	0	0	0	0	512	474	415	
12	0	0	0	0	516	471	422	
13	0	0	0	0	520	468	429	
14	0	0	0	0	526	465	438	
15	0	0	0	0	530	463	444	
0	0	0	0	0	535	461	453	
1	0	0	0	0	539	459	475	
2	0	0	0	0	542	458	480	
3	0	0	0	0	545	457	486	
4	0	0	0	0	548	457	495	
5	0	0	0	0	549	457	494	
6	0	0	0	0	551	459	507	
7	0	0	0	0	551	460	515	
8	0	0	0	0	553	461	512	
9	0	0	0	0	555	463	511	
10	0	0	0	0	556	463	527	
11	0	0	0	0	557	464	519	
12	0	0	0	0	556	465	509	
13	0	0	0	0	555	465	516	
14	0	0	0	0	552	467	517	
15	0	0	0	0	550	470	517	
0	0	0	0	0	547	472	526	
1	0	0	0	0	547	474	516	
2	0	0	0	0	545	477	520	
3	0	0	0	0	544	480	516	
4	0	0	0	0	543	483	519	
5	0	0	0	0	543	486	511	
6	0	0	0	0	543	489	524	
7	0	0	0	0	543	492	518	
8	0	0	0	0	542	495	523	
9	0	0	0	0	541	497	511	
10	0	0	0	0	541	500	513	
11	0	0	0	0	540	503	516	
12	0	0	0	0	540	505	516	
13	0	0	0	0	539	507	513	
14	0	0	0	0	539	509	517	
15	0	0	0	0	539	512	511	
0	0	0	0	0	538	514	515	
1	0	0	0	0	538	516	524	
2	0	0	0	0	537	518	516	
3	0	0	0	0	537	520	523	
4	0	0	0	0	537	522	521	
5	0	0	0	0	535	524	523	
6	0	0	0	0	533	525	527	
7	0	0	0	0	530	526	528	
8	0	0	0	0	527	527	531	
9	0	0	0	0	525	527	526	
10	0	0	0	0	524	527	524	
11	0	0	0	0	522	527	519	
12	0	0	0	0	520	527	525	
13	0	0	0	0	518	527	523	
14	0	0	0	0	517	527	518	
15	0	0	0	0	517	528	510	
0	0	0	0	0	515	528	515	
1	0	0	0	0	512	529	517	
2	0	0	0	0	512	529	519	
3	0	0	0	0	510	529	521	
4	0	0	0	0	508	529	526	
5	0	0	0	0	508	529	526	
6	0	0	0	0	507	529	531	
7	0	0	0	0	509	528	516	
8	0	0	0	0	510	529	513	
9	0	0	0	0	508	529	513	
10	0	0	0	0	508	530	497	
11	0	0	0	0	507	531	496	
12	0	0	0	0	505	531	648	
13	0	0	0	0	505	531	975	
14	0	0	0	0	504	531	1022	
15	0	0	0	0	504	531	824	
0	0	0	0	0	504	531	500	
1	0	0	0	0	504	529	361	
2	0	0	0	0	504	528	350	
3	0	0	0	0	503	527	348	
4	0	0	0	0	504	527	348	
5	0	0	0	0	501	527	367	
6	0	0	0	0	498	526	390	
7	0	0	0	0	496	524	403	
8	0	0	0	0	494	522	432	
9	0	0	0	0	494	520	447	
10	0	0	0	0	495	517	453	
11	0	0	0	0	494	514	463	
12	0	0	0	0	493	512	475	
13	0	0	0	0	493	510	480	
14	0	0	0	0	494	508	507	
15	0	0	0	0	495	505	516	
0	0	0	0	0	494	502	526	
1	0	0	0	0	492	497	540	
2	0	0	0	0	491	492	553	
3	0	0	0	0	491	487	572	
4	0	0	0	0	489	481	586	
5	0	0	0	0	488	476	591	
6	0	0	0	0	489	471	593	
7	0	0	0	0	489	467	584	
8	0	0	0	0	490	465	563	
9	0	0	0	0	491	463	529	
10	0	0	0	0	494	461	482	
11	0	0	0	0	495	459	443	
12	0	0	0	0	497	457	416	
13	0	0	0	0	501	455	394	
14	0	0	0	0	506	453	392	
15	0	0	0	0	510	451	394	
0	0	0	0	0	515	449	417	
1	0	0	0	0	520	447	419	
2	0	0	0	0	526	445	436	
3	0	0	0	0	531	443	448	
4	0	0	0	0	535	441	452	
5	0	0	0	0	537	439	462	
6	0	0	0	0	540	437	471	
7	0	0	0	0	543	435	478	
8	0	0	0	0	546	434	487	
9	0	0	0	0	547	433	495	
10	0	0	0	0	551	433	496	
11	0	0	0	0	552	434	503	
12	0	0	0	0	556	435	512	
13	0	0	0	0	557	437	521	
14	0	0	0	0	559	438	527	
15	0	0	0	0	558	439	521	
0	0	0	0	0	556	440	527	
1	0	0	0	0	556	440	529	
2	0	0	0	0	555	439	523	
3	0	0	0	0	552	439	523	
4	0	0	0	0	551	437	528	
5	0	0	0	0	550	437	531	
6	0	0	0	0	548	436	527	
7	0	0	0	0	548	436	520	
8	0	0	0	0	550	436	530	
9	0	0	0	0	550	437	528	
10	0	0	0	0	549	437	526	
11	0	0	0	0	551	437	524	
12	0	0	0	0	550	438	517	
13	0	0	0	0	550	438	527	
14	0	0	0	0	549	437	521	
15	0	0	0	0	547	437	527	
0	0	0	0	0	546	437	524	
1	0	0	0	0	545	437	526	
2	0	0	0	0	542	436	523	
3	0	0	0	0	540	436	526	
4	0	0	0	0	538	435	519	
5	0	0	0	0	536	434	520	
6	0	0	0	0	536	433	522	
7	0	0	0	0	535	433	525	
8	0	0	0	0	534	433	520	
9	0	0	0	0	532	432	518	
10	0	0	0	0	530	432	519	
11	0	0	0	0	528	431	510	
12	0	0	0	0	528	430	510	
13	0	0	0	0	528	430	519	
14	0	0	0	0	529	429	519	
15	0	0	0	0	529	429	515	
0	0	0	0	0	529	428	521	
1	0	0	0	0	527	427	519	
2	0	0	0	0	524	427	516	
3	0	0	0	0	525	426	516	
4	0	0	0	0	523	425	513	
5	0	0	0	0	520	425	515	
6	0	0	0	0	518	425	507	
7	0	0	0	0	516	424	495	
8	0	0	0	0	514	424	511	
9	0	0	0	0	511	423	517	
10	0	0	0	0	508	423	515	
11	0	0	0	0	506	422	521	
12	0	0	0	0	504	421	523	
13	0	0	0	0	502	420	524	
14	0	0	0	0	503	419	516	
15	0	0	0	0	503	419	508	
0	0	0	0	0	500	419	500	
1	0	0	0	0	500	418	479	
2	0	0	0	0	500	418	529	
3	0	0	0	0	501	417	761	
4	0	0	0	0	502	416	1022	
5	0	0	0	0	504	415	1022	
6	0	0	0	0	504	414	692	
7	0	0	0	0	505	412	439	
8	0	0	0	0	503	409	342	
9	0	0	0	0	501	407	331	
10	0	0	0	0	500	405	338	
11	0	0	0	0	499	405	360	
12	0	0	0	0	498	405	372	
13	0	0	0	0	495	403	389	
14	0	0	0	0	492	401	414	
15	0	0	0	0	489	400	424	
0	0	0	0	0	487	398	439	
1	0	0	0	0	487	396	454	
2	0	0	0	0	487	393	468	
3	0	0	0	0	487	391	478	
4	0	0	0	0	487	390	497	
5	0	0	0	0	487	388	500	
6	0	0	0	0	487	386	524	
7	0	0	0	0	488	383	535	
8	0	0	0	0	488	379	543	
9	0	0	0	0	488	375	555	
10	0	0	0	0	487	370	575	
11	0	0	0	0	489	366	588	
12	0	0	0	0	491	361	586	
13	0	0	0	0	490	356	582	
14	0	0	0	0	490	353	574	
15	0	0	0	0	491	349	560	
0	0	0	0	0	490	347	510	
1	0	0	0	0	490	344	466	
2	0	0	0	0	493	342	419	
3	0	0	0	0	496	339	405	
4	0	0	0	0	503	336	394	
5	0	0	0	0	508	334	390	
6	0	0	0	0	512	331	391	
7	0	0	0	0	516	328	407	
8	0	0	0	0	523	326	407	
9	0	0	0	0	527	322	424	
10	0	0	0	0	530	320	435	
11	0	0	0	0	532	316	442	
12	0	0	0	0	535	314	451	
13	0	0	0	0	537	312	465	
14	0	0	0	0	540	310	468	
15	0	0	0	0	543	309	481	
0	0	0	0	0	545	309	487	
1	0	0	0	0	547	309	484	
2	0	0	0	0	550	310	488	
3	0	0	0	0	552	310	503	
4	0	0	0	0	553	312	508	
5	0	0	0	0	554	312	505	
6	0	0	0	0	555	313	514	
7	0	0	0	0	556	312	513	
8	0	0	0	0	558	312	519	
9	0	0	0	0	558	312	510	
10	0	0	0	0	558	311	523	
11	0	0	0	0	558	312	523	
12	0	0	0	0	558	315	515	
13	0	0	0	0	556	317	522	
14	0	0	0	0	554	320	511	
15	0	0	0	0	552	325	529	
0	0	0	0	0	549	330	515	
1	0	0	0	0	548	335	517	
2	0	0	0	0	547	339	529	
3	0	0	0	0	544	343	520	
4	0	0	0	0	543	345	519	
5	0	0	0	0	543	346	526	
6	0	0	0	0	542	346	540	
7	0	0	0	0	542	346	534	
8	0	0	0	0	541	345	527	
9	0	0	0	0	539	342	523	
10	0	0	0	0	539	340	524	
11	0	0	0	0	537	337	517	
12	0	0	0	0	536	335	525	
13	0	0	0	0	536	334	523	
14	0	0	0	0	536	333	521	
15	0	0	0	0	536	332	521	
0	0	0	0	0	536	332	524	
1	0	0	0	0	535	332	521	
2	0	0	0	0	534	332	525	
3	0	0	0	0	532	333	523	
4	0	0	0	0	530	335	526	
5	0	0	0	0	527	337	533	
6	0	0	0	0	524	339	530	
7	0	0	0	0	521	342	528	
8	0	0	0	0	518	345	527	
9	0	0	0	0	517	348	525	
10	0	0	0	0	515	351	510	
11	0	0	0	0	514	354	522	
12	0	0	0	0	515	358	522	
13	0	0	0	0	515	359	523	
14	0	0	0	0	516	362	522	
15	0	0	0	0	515	365	515	
0	0	0	0	0	515	368	520	
1	0	0	0	0	515	369	535	
2	0	0	0	0	515	371	535	
3	0	0	0	0	515	372	514	
4	0	0	0	0	514	373	522	
5	0	0	0	0	513	374	516	
6	0	0	0	0	512	374	515	
7	0	0	0	0	510	373	489	
8	0	0	0	0	508	372	579	
9	0	0	0	0	507	371	864	
10	0	0	0	0	506	370	1022	
11	0	0	0	0	504	369	1016	
12	0	0	0	0	502	368	635	
13	0	0	0	0	499	366	432	
14	0	0	0	0	500	363	356	
15	0	0	0	0	500	360	356	
0	0	0	0	0	500	359	363	
1	0	0	0	0	499	357	370	
2	0	0	0	0	498	356	387	
3	0	0	0	0	495	353	398	
4	0	0	0	0	493	351	430	
5	0	0	0	0	493	348	443	
6	0	0	0	0	492	344	456	
7	0	0	0	0	491	341	462	
8	0	0	0	0	491	338	474	
9	0	0	0	0	487	335	487	
10	0	0	0	0	487	333	489	
11	0	0	0	0	486	331	508	
12	0	0	0	0	485	328	521	
13	0	0	0	0	485	325	536	
14	0	0	0	0	483	322	555	
15	0	0	0	0	482	318	566	
0	0	0	0	0	485	314	578	
1	0	0	0	0	487	310	591	
2	0	0	0	0	488	306	592	
3	0	0	0	0	488	303	580	
4	0	0	0	0	489	301	579	
5	0	0	0	0	490	299	546	
6	0	0	0	0	492	297	498	
7	0	0	0	0	496	295	449	
8	0	0	0	0	499	294	408	
9	0	0	0	0	503	292	388	
10	0	0	0	0	506	290	384	
11	0	0	0	0	509	288	385	
12	0	0	0	0	512	286	393	
13	0	0	0	0	515	284	403	
14	0	0	0	0	518	282	413	
15	0	0	0	0	521	281	422	
0	0	0	0	0	525	279	433	
1	0	0	0	0	527	278	434	
2	0	0	0	0	531	277	446	
3	0	0	0	0	534	277	452	
4	0	0	0	0	537	278	460	
5	0	0	0	0	540	282	473	
6	0	0	0	0	543	284	485	
7	0	0	0	0	548	288	488	
8	0	0	0	0	550	292	496	
9	0	0	0	0	551	298	510	
10	0	0	0	0	553	303	519	
11	0	0	0	0	554	307	521	
12	0	0	0	0	556	312	519	
13	0	0	0	0	557	315	518	
14	0	0	0	0	557	319	529	
15	0	0	0	0	556	320	526	
0	0	0	0	0	556	322	518	
1	0	0	0	0	554	324	522	
2	0	0	0	0	552	325	523	
3	0	0	0	0	549	327	527	
4	0	0	0	0	549	327	527	
5	0	0	0	0	548	327	530	
6	0	0	0	0	546	327	529	
7	0	0	0	0	542	327	524	
8	0	0	0	0	538	327	514	
9	0	0	0	0	536	329	528	
10	0	0	0	0	533	329	519	
11	0	0	0	0	533	329	518	
12	0	0	0	0	533	331	515	
13	0	0	0	0	532	332	515	
14	0	0	0	0	529	333	516	
15	0	0	0	0	529	335	518	
0	0	0	0	0	528	335	524	
1	0	0	0	0	529	336	521	
2	0	0	0	0	528	339	517	
3	0	0	0	0	529	339	514	
4	0	0	0	0	528	341	518	
5	0	0	0	0	526	344	516	
6	0	0	0	0	524	347	515	
7	0	0	0	0	522	351	512	
8	0	0	0	0	522	354	506	
9	0	0	0	0	521	358	513	
10	0	0	0	0	520	361	512	
11	0	0	0	0	519	364	511	
12	0	0	0	0	517	366	512	
13	0	0	0	0	515	368	514	
14	0	0	0	0	513	369	508	
15	0	0	0	0	510	372	518	
0	0	0	0	0	508	374	513	
1	0	0	0	0	508	376	509	
2	0	0	0	0	507	378	500	
3	0	0	0	0	506	380	504	
4	0	0	0	0	504	381	513	
5	0	0	0	0	503	383	515	
6	0	0	0	0	502	384	511	
7	0	0	0	0	502	385	517	
8	0	0	0	0	502	387	495	
9	0	0	0	0	503	388	488	
10	0	0	0	0	503	390	491	
11	0	0	0	0	502	391	481	
12	0	0	0	0	501	393	467	
13	0	0	0	0	499	395	589	
14	0	0	0	0	499	397	919	
15	0	0	0	0	496	399	1022	
0	0	0	0	0	494	401	878	
1	0	0	0	0	493	403	541	
2	0	0	0	0	495	404	379	
3	0	0	0	0	496	406	337	
4	0	0	0	0	496	406	329	
5	0	0	0	0	494	407	342	
6	0	0	0	0	494	408	353	
7	0	0	0	0	493	408	364	
8	0	0	0	0	491	408	384	
9	0	0	0	0	489	408	406	
10	0	0	0	0	489	411	428	
11	0	0	0	0	487	412	440	
12	0	0	0	0	487	414	454	
13	0	0	0	0	488	415	457	
14	0	0	0	0	489	419	482	
15	0	0	0	0	488	422	494	
0	0	0	0	0	486	424	512	
1	0	0	0	0	484	423	523	
2	0	0	0	0	483	421	546	
3	0	0	0	0	482	417	556	
4	0	0	0	0	482	412	568	
5	0	0	0	0	481	406	589	
6	0	0	0	0	481	400	599	
7	0	0	0	0	483	396	598	
8	0	0	0	0	483	394	586	
9	0	0	0	0	484	393	572	
10	0	0	0	0	485	394	537	
11	0	0	0	0	483	396	501	
12	0	0	0	0	483	399	456	
13	0	0	0	0	484	402	423	
14	0	0	0	0	487	404	393	
15	0	0	0	0	492	406	393	
0	0	0	0	0	496	408	399	
1	0	0	0	0	502	409	404	
2	0	0	0	0	509	411	412	
3	0	0	0	0	513	413	427	
4	0	0	0	0	518	416	439	
5	0	0	0	0	522	419	445	
6	0	0	0	0	526	422	462	
7	0	0	0	0	529	426	468	
8	0	0	0	0	532	431	479	
9	0	0	0	0	534	435	487	
10	0	0	0	0	533	442	489	
11	0	0	0	0	534	448	481	
12	0	0	0	0	533	455	503	
13	0	0	0	0	533	463	515	
14	0	0	0	0	533	470	520	
15	0	0	0	0	534	477	522	
0	0	0	0	0	536	484	522	
1	0	0	0	0	536	491	532	
2	0	0	0	0	539	498	530	
3	0	0	0	0	540	505	529	
4	0	0	0	0	540	514	526	
5	0	0	0	0	539	522	530	
6	0	0	0	0	540	530	527	
7	0	0	0	0	540	538	526	
8	0	0	0	0	540	545	527	
9	0	0	0	0	539	552	532	
10	0	0	0	0	542	559	529	
11	0	0	0	0	542	564	537	
12	0	0	0	0	543	568	544	
13	0	0	0	0	542	572	534	
14	0	0	0	0	542	576	538	
15	0	0	0	0	542	579	543	
0	0	0	0	0	540	582	543	
1	0	0	0	0	540	584	516	
2	0	0	0	0	541	588	480	
3	0	0	0	0	541	591	471	
4	0	0	0	0	541	594	458	
5	0	0	0	0	540	597	476	
6	0	0	0	0	540	600	493	
7	0	0	0	0	539	602	514	
8	0	0	0	0	536	604	532	
9	0	0	0	0	534	604	543	
10	0	0	0	0	534	604	538	
11	0	0	0	0	534	604	533	
12	0	0	0	0	532	605	531	
13	0	0	0	0	530	604	537	
14	0	0	0	0	528	604	533	
15	0	0	0	0	527	604	531	
0	0	0	0	0	526	605	546	
1	0	0	0	0	525	605	528	
2	0	0	0	0	525	605	515	
3	0	0	0	0	524	603	518	
4	0	0	0	0	521	600	506	
5	0	0	0	0	521	595	505	
6	0	0	0	0	520	591	504	
7	0	0	0	0	518	584	505	
8	0	0	0	0	514	578	500	
9	0	0	0	0	512	572	497	
10	0	0	0	0	511	565	498	
11	0	0	0	0	511	559	508	
12	0	0	0	0	511	552	488	
13	0	0	0	0	513	545	564	
14	0	0	0	0	515	538	788	
15	0	0	0	0	515	529	1022	
0	0	0	0	0	514	520	1022	
1	0	0	0	0	514	510	738	
2	0	0	0	0	514	499	490	
3	0	0	0	0	513	487	384	
4	0	0	0	0	511	475	388	
5	0	0	0	0	511	463	388	
6	0	0	0	0	510	452	403	
7	0	0	0	0	508	440	408	
8	0	0	0	0	507	429	423	
9	0	0	0	0	507	417	426	
10	0	0	0	0	508	407	455	
11	0	0	0	0	508	396	463	
12	0	0	0	0	509	384	472	
13	0	0	0	0	509	372	492	
14	0	0	0	0	509	360	503	
15	0	0	0	0	509	350	494	
0	0	0	0	0	508	338	523	
1	0	0	0	0	506	327	522	
2	0	0	0	0	505	315	532	
3	0	0	0	0	504	303	534	
4	0	0	0	0	504	291	548	
5	0	0	0	0	502	278	562	
6	0	0	0	0	502	266	569	
7	0	0	0	0	500	254	565	
8	0	0	0	0	499	246	556	
9	0	0	0	0	498	236	553	
10	0	0	0	0	498	230	537	
11	0	0	0	0	498	225	508	
12	0	0	0	0	500	221	452	
13	0	0	0	0	502	221	425	
14	0	0	0	0	507	222	388	
15	0	0	0	0	510	221	375	
0	0	0	0	0	513	220	375	
1	0	0	0	0	516	221	386	
2	0	0	0	0	520	219	396	
3	0	0	0	0	525	217	403	
4	0	0	0	0	531	216	404	
5	0	0	0	0	535	214	436	
6	0	0	0	0	539	212	441	
7	0	0	0	0	543	211	444	
8	0	0	0	0	545	210	460	
9	0	0	0	0	549	209	474	
10	0	0	0	0	552	209	482	
11	0	0	0	0	555	208	482	
12	0	0	0	0	557	207	489	
13	0	0	0	0	557	206	495	
14	0	0	0	0	559	205	501	
15	0	0	0	0	559	204	508	
0	0	0	0	0	560	204	522	
1	0	0	0	0	560	206	540	
2	0	0	0	0	560	208	555	
3	0	0	0	0	560	211	571	
4	0	0	0	0	561	214	571	
5	0	0	0	0	561	217	568	
6	0	0	0	0	561	220	561	
7	0	0	0	0	562	223	587	
8	0	0	0	0	562	226	590	
9	0	0	0	0	560	227	592	
10	0	0	0	0	558	228	590	
11	0	0	0	0	556	232	562	
12	0	0	0	0	553	233	551	
13	0	0	0	0	550	238	541	
14	0	0	0	0	547	241	539	
15	0	0	0	0	546	245	531	
0	0	0	0	0	545	250	524	
1	0	0	0	0	543	252	525	
2	0	0	0	0	543	256	520	
3	0	0	0	0	542	259	528	
4	0	0	0	0	543	261	525	
5	0	0	0	0	540	264	513	
6	0	0	0	0	538	263	521	
7	0	0	0	0	535	265	534	
8	0	0	0	0	532	266	527	
9	0	0	0	0	529	267	522	
10	0	0	0	0	529	268	519	
11	0	0	0	0	527	269	524	
12	0	0	0	0	526	272	502	
13	0	0	0	0	525	275	499	
14	0	0	0	0	527	279	496	
15	0	0	0	0	528	283	498	
0	0	0	0	0	527	287	487	
1	0	0	0	0	527	290	489	
2	0	0	0	0	527	294	486	
3	0	0	0	0	527	295	501	
4	0	0	0	0	526	296	518	
5	0	0	0	0	525	297	517	
6	0	0	0	0	523	298	502	
7	0	0	0	0	519	299	499	
8	0	0	0	0	519	299	494	
9	0	0	0	0	518	300	495	
10	0	0	0	0	517	302	488	
11	0	0	0	0	515	303	460	
12	0	0	0	0	516	305	562	
13	0	0	0	0	514	307	864	
14	0	0	0	0	514	309	1022	
15	0	0	0	0	513	312	930	
0	0	0	0	0	513	314	561	
1	0	0	0	0	511	315	376	
2	0	0	0	0	509	315	306	
3	0	0	0	0	505	316	296	
4	0	0	0	0	502	318	324	
5	0	0	0	0	499	321	336	
6	0	0	0	0	496	323	364	
7	0	0	0	0	496	324	378	
8	0	0	0	0	496	326	401	
9	0	0	0	0	498	327	417	
10	0	0	0	0	500	329	423	
11	0	0	0	0	500	331	439	
12	0	0	0	0	499	332	449	
13	0	0	0	0	498	334	451	
14	0	0	0	0	497	337	469	
15	0	0	0	0	497	339	482	
0	0	0	0	0	496	340	490	
1	0	0	0	0	493	342	524	
2	0	0	0	0	491	343	541	
3	0	0	0	0	489	341	562	
4	0	0	0	0	488	339	574	
5	0	0	0	0	486	338	579	
6	0	0	0	0	486	336	604	
7	0	0	0	0	487	335	607	
8	0	0	0	0	488	334	594	
9	0	0	0	0	489	332	565	
10	0	0	0	0	492	332	520	
11	0	0	0	0	495	332	478	
12	0	0	0	0	498	331	437	
13	0	0	0	0	500	329	423	
14	0	0	0	0	504	329	413	
15	0	0	0	0	510	327	422	
0	0	0	0	0	515	326	420	
1	0	0	0	0	519	324	435	
2	0	0	0	0	523	323	443	
3	0	0	0	0	529	323	444	
4	0	0	0	0	534	323	467	
5	0	0	0	0	538	323	475	
6	0	0	0	0	541	324	479	
7	0	0	0	0	547	324	483	
8	0	0	0	0	551	325	496	
9	0	0	0	0	556	327	509	
10	0	0	0	0	561	328	510	
11	0	0	0	0	565	331	516	
12	0	0	0	0	568	334	518	
13	0	0	0	0	569	336	526	
14	0	0	0	0	569	339	539	
15	0	0	0	0	571	341	540	
0	0	0	0	0	571	344	531	
1	0	0	0	0	572	345	535	
2	0	0	0	0	571	346	531	
3	0	0	0	0	569	348	525	
4	0	0	0	0	564	349	524	
5	0	0	0	0	559	350	521	
6	0	0	0	0	553	351	520	
7	0	0	0	0	548	353	523	
8	0	0	0	0	546	354	515	
9	0	0	0	0	545	355	525	
10	0	0	0	0	547	357	517	
11	0	0	0	0	546	358	510	
12	0	0	0	0	547	359	515	
13	0	0	0	0	547	360	516	
14	0	0	0	0	547	362	505	
15	0	0	0	0	546	363	518	
0	0	0	0	0	546	363	511	
1	0	0	0	0	546	364	514	
2	0	0	0	0	546	364	514	
3	0	0	0	0	545	364	512	
4	0	0	0	0	544	364	511	
5	0	0	0	0	544	364	515	
6	0	0	0	0	542	365	516	
7	0	0	0	0	539	365	509	
8	0	0	0	0	536	365	503	
9	0	0	0	0	533	366	511	
10	0	0	0	0	531	367	512	
11	0	0	0	0	529	368	517	
12	0	0	0	0	526	369	518	
13	0	0	0	0	522	370	508	
14	0	0	0	0	520	370	529	
15	0	0	0	0	518	371	523	
0	0	0	0	0	517	371	534	
1	0	0	0	0	516	371	530	
2	0	0	0	0	514	371	523	
3	0	0	0	0	512	372	521	
4	0	0	0	0	511	372	505	
5	0	0	0	0	513	373	501	
6	0	0	0	0	513	374	497	
7	0	0	0	0	512	375	486	
8	0	0	0	0	515	375	481	
9	0	0	0	0	515	376	659	
10	0	0	0	0	514	376	1004	
11	0	0	0	0	513	376	1022	
12	0	0	0	0	512	377	795	
13	0	0	0	0	511	377	505	
14	0	0	0	0	509	377	366	
15	0	0	0	0	508	376	343	
0	0	0	0	0	508	377	344	
1	0	0	0	0	507	378	354	
2	0	0	0	0	504	380	372	
3	0	0	0	0	500	381	378	
4	0	0	0	0	499	381	402	
5	0	0	0	0	498	381	421	
6	0	0	0	0	496	380	435	
7	0	0	0	0	496	379	443	
8	0	0	0	0	495	378	463	
9	0	0	0	0	494	377	478	
10	0	0	0	0	494	376	487	
11	0	0	0	0	494	377	500	
12	0	0	0	0	494	377	515	
13	0	0	0	0	493	376	534	
14	0	0	0	0	493	375	546	
15	0	0	0	0	493	374	563	
0	0	0	0	0	492	372	580	
1	0	0	0	0	488	371	591	
2	0	0	0	0	486	369	599	
3	0	0	0	0	486	368	597	
4	0	0	0	0	486	369	583	
5	0	0	0	0	486	371	558	
6	0	0	0	0	488	373	518	
7	0	0	0	0	490	376	471	
8	0	0	0	0	492	380	432	
9	0	0	0	0	495	383	405	
10	0	0	0	0	498	386	398	
11	0	0	0	0	504	388	395	
12	0	0	0	0	509	391	405	
13	0	0	0	0	514	393	413	
14	0	0	0	0	521	396	418	
15	0	0	0	0	527	398	431	
0	0	0	0	0	532	401	438	
1	0	0	0	0	537	405	444	
2	0	0	0	0	543	409	452	
3	0	0	0	0	547	415	465	
4	0	0	0	0	551	419	470	
5	0	0	0	0	553	424	483	
6	0	0	0	0	557	429	492	
7	0	0	0	0	560	433	496	
8	0	0	0	0	561	438	503	
9	0	0	0	0	561	441	511	
10	0	0	0	0	562	446	513	
11	0	0	0	0	562	449	512	
12	0	0	0	0	561	452	515	
13	0	0	0	0	561	455	526	
14	0	0	0	0	561	458	526	
15	0	0	0	0	560	460	515	
0	0	0	0	0	559	462	519	
1	0	0	0	0	558	464	512	
2	0	0	0	0	556	467	506	
3	0	0	0	0	555	469	505	
4	0	0	0	0	554	472	510	
5	0	0	0	0	550	476	510	
6	0	0	0	0	548	480	509	
7	0	0	0	0	545	484	506	
8	0	0	0	0	544	487	504	
9	0	0	0	0	543	492	510	
10	0	0	0	0	543	495	505	
11	0	0	0	0	542	498	519	
12	0	0	0	0	543	502	513	
13	0	0	0	0	543	505	510	
14	0	0	0	0	542	509	514	
15	0	0	0	0	540	513	505	
0	0	0	0	0	538	516	509	
1	0	0	0	0	536	518	507	
2	0	0	0	0	533	520	504	
3	0	0	0	0	529	523	505	
4	0	0	0	0	527	525	503	
5	0	0	0	0	527	528	499	
6	0	0	0	0	528	530	501	
7	0	0	0	0	528	532	499	
8	0	0	0	0	525	535	500	
9	0	0	0	0	524	536	504	
10	0	0	0	0	523	538	512	
11	0	0	0	0	520	539	513	
12	0	0	0	0	519	540	521	
13	0	0	0	0	517	540	521	
14	0	0	0	0	516	541	523	
15	0	0	0	0	515	541	511	
0	0	0	0	0	514	541	506	
1	0	0	0	0	512	541	507	
2	0	0	0	0	511	541	500	
3	0	0	0	0	511	541	472	
4	0	0	0	0	509	542	528	
5	0	0	0	0	508	542	757	
6	0	0	0	0	507	542	1022	
7	0	0	0	0	506	542	1008	
8	0	0	0	0	506	543	691	
9	0	0	0	0	502	544	451	
10	0	0	0	0	501	545	345	
11	0	0	0	0	499	545	344	
12	0	0	0	0	498	546	355	
13	0	0	0	0	496	547	364	
14	0	0	0	0	496	547	373	
15	0	0	0	0	496	547	386	
0	0	0	0	0	497	548	401	
1	0	0	0	0	496	551	431	
2	0	0	0	0	496	555	434	
