# OpenSignals Text File Format. Version 1
# {"84:BA:20:AE:BC:92": {"position": 0, "device": "bitalino_rev", "device name": "84:BA:20:AE:BC:92", "device connection": "BTH84:BA:20:AE:BC:92", "sampling rate": 100, "resolution": [4, 1, 1, 1, 1, 10, 10, 10], "firmware version": 1282, "comments": "", "keywords": "", "mode": 0, "sync interval": 2, "date": "2025-10-22", "time": "11:25:7.370", "channels": [2, 3, 4], "sensor": ["RAW", "RESPBIT", "ECGBIT"], "label": ["A2", "A3", "A4"], "column": ["nSeq", "I1", "I2", "O1", "O2", "A2", "A3", "A4"], "special": [{}, {}, {}], "digital IO": [0, 0, 1, 1], "convertedValues": 0}}
# EndOfHeader
0	0	0	0	0	502	620	660	
1	0	0	0	0	501	621	542	
2	0	0	0	0	499	622	483	
3	0	0	0	0	497	621	499	
4	0	0	0	0	496	615	511	
5	0	0	0	0	495	607	511	
6	0	0	0	0	495	597	496	
7	0	0	0	0	495	585	528	
8	0	0	0	0	496	573	499	
9	0	0	0	0	496	560	463	
10	0	0	0	0	494	545	471	
11	0	0	0	0	493	528	466	
12	0	0	0	0	492	511	459	
13	0	0	0	0	492	494	476	
14	0	0	0	0	492	478	467	
15	0	0	0	0	494	463	488	
0	0	0	0	0	494	448	461	
1	0	0	0	0	495	434	511	
2	0	0	0	0	495	420	534	
3	0	0	0	0	495	407	527	
4	0	0	0	0	497	394	536	
5	0	0	0	0	499	383	546	
6	0	0	0	0	500	376	517	
7	0	0	0	0	502	370	510	
8	0	0	0	0	506	368	475	
9	0	0	0	0	508	369	450	
10	0	0	0	0	511	375	439	
11	0	0	0	0	513	381	474	
12	0	0	0	0	514	389	509	
13	0	0	0	0	514	398	505	
14	0	0	0	0	515	407	519	
15	0	0	0	0	514	419	524	
0	0	0	0	0	515	433	464	
1	0	0	0	0	516	451	465	
2	0	0	0	0	517	470	445	
3	0	0	0	0	518	490	470	
4	0	0	0	0	519	510	463	
5	0	0	0	0	520	527	502	
6	0	0	0	0	519	545	519	
7	0	0	0	0	516	564	526	
8	0	0	0	0	514	584	519	
9	0	0	0	0	511	602	544	
10	0	0	0	0	511	619	527	
11	0	0	0	0	509	634	534	
12	0	0	0	0	507	647	505	
13	0	0	0	0	507	658	545	
14	0	0	0	0	509	668	486	
15	0	0	0	0	509	676	444	
0	0	0	0	0	506	686	459	
1	0	0	0	0	504	694	458	
2	0	0	0	0	504	704	465	
3	0	0	0	0	503	716	465	
4	0	0	0	0	502	729	376	
5	0	0	0	0	500	741	306	
6	0	0	0	0	498	754	355	
7	0	0	0	0	497	765	579	
8	0	0	0	0	497	776	638	
9	0	0	0	0	496	785	492	
10	0	0	0	0	496	792	309	
11	0	0	0	0	498	797	278	
12	0	0	0	0	500	802	318	
13	0	0	0	0	503	807	357	
14	0	0	0	0	505	814	350	
15	0	0	0	0	507	822	373	
0	0	0	0	0	510	829	411	
1	0	0	0	0	510	836	413	
2	0	0	0	0	508	845	408	
3	0	0	0	0	507	852	443	
4	0	0	0	0	504	857	462	
5	0	0	0	0	500	862	465	
6	0	0	0	0	497	866	461	
7	0	0	0	0	496	871	542	
8	0	0	0	0	496	877	546	
9	0	0	0	0	495	883	546	
10	0	0	0	0	496	890	616	
11	0	0	0	0	494	896	647	
12	0	0	0	0	496	901	676	
13	0	0	0	0	497	905	704	
14	0	0	0	0	497	908	684	
15	0	0	0	0	500	912	652	
0	0	0	0	0	502	917	590	
1	0	0	0	0	506	922	526	
2	0	0	0	0	511	927	515	
3	0	0	0	0	514	932	567	
4	0	0	0	0	516	936	598	
5	0	0	0	0	521	938	681	
6	0	0	0	0	523	940	692	
7	0	0	0	0	526	941	644	
8	0	0	0	0	528	943	574	
9	0	0	0	0	530	945	495	
10	0	0	0	0	532	948	441	
11	0	0	0	0	533	949	383	
12	0	0	0	0	533	949	300	
13	0	0	0	0	534	949	258	
14	0	0	0	0	534	948	262	
15	0	0	0	0	533	947	291	
0	0	0	0	0	532	943	300	
1	0	0	0	0	532	937	265	
2	0	0	0	0	531	931	236	
3	0	0	0	0	531	926	158	
4	0	0	0	0	531	921	166	
5	0	0	0	0	533	916	181	
6	0	0	0	0	533	910	174	
7	0	0	0	0	531	902	170	
8	0	0	0	0	528	895	128	
9	0	0	0	0	526	889	153	
10	0	0	0	0	523	884	204	
11	0	0	0	0	519	880	273	
12	0	0	0	0	520	878	340	
13	0	0	0	0	519	876	371	
14	0	0	0	0	518	876	497	
15	0	0	0	0	519	877	771	
0	0	0	0	0	519	880	930	
1	0	0	0	0	520	885	725	
2	0	0	0	0	520	887	463	
3	0	0	0	0	519	887	277	
4	0	0	0	0	519	888	198	
5	0	0	0	0	519	887	199	
6	0	0	0	0	517	889	191	
7	0	0	0	0	517	896	232	
8	0	0	0	0	519	901	267	
9	0	0	0	0	519	905	339	
10	0	0	0	0	518	909	384	
11	0	0	0	0	518	911	459	
12	0	0	0	0	519	910	510	
13	0	0	0	0	520	910	543	
14	0	0	0	0	520	913	576	
15	0	0	0	0	519	919	608	
0	0	0	0	0	519	928	642	
1	0	0	0	0	518	935	645	
2	0	0	0	0	515	943	668	
3	0	0	0	0	511	949	657	
4	0	0	0	0	511	954	633	
5	0	0	0	0	511	959	635	
6	0	0	0	0	510	963	590	
7	0	0	0	0	511	967	561	
8	0	0	0	0	513	971	626	
9	0	0	0	0	515	974	631	
10	0	0	0	0	517	977	631	
11	0	0	0	0	518	980	615	
12	0	0	0	0	520	981	609	
13	0	0	0	0	521	981	583	
14	0	0	0	0	523	979	587	
15	0	0	0	0	524	975	611	
0	0	0	0	0	526	970	657	
1	0	0	0	0	528	964	655	
2	0	0	0	0	530	958	691	
3	0	0	0	0	532	951	690	
4	0	0	0	0	533	944	675	
5	0	0	0	0	534	935	625	
6	0	0	0	0	531	926	599	
7	0	0	0	0	531	915	573	
8	0	0	0	0	529	902	519	
9	0	0	0	0	526	889	481	
10	0	0	0	0	524	875	568	
11	0	0	0	0	523	862	550	
12	0	0	0	0	524	848	589	
13	0	0	0	0	524	835	552	
14	0	0	0	0	524	822	512	
15	0	0	0	0	523	811	519	
0	0	0	0	0	521	800	480	
1	0	0	0	0	519	791	539	
2	0	0	0	0	518	783	583	
3	0	0	0	0	516	776	590	
4	0	0	0	0	516	768	546	
5	0	0	0	0	515	760	492	
6	0	0	0	0	515	752	517	
7	0	0	0	0	516	745	856	
8	0	0	0	0	517	739	957	
9	0	0	0	0	518	733	799	
10	0	0	0	0	519	724	523	
11	0	0	0	0	519	714	349	
12	0	0	0	0	517	705	277	
13	0	0	0	0	514	697	329	
14	0	0	0	0	510	693	341	
15	0	0	0	0	508	690	363	
0	0	0	0	0	505	688	418	
1	0	0	0	0	502	688	422	
2	0	0	0	0	499	689	457	
3	0	0	0	0	498	687	514	
4	0	0	0	0	495	681	535	
5	0	0	0	0	493	671	507	
6	0	0	0	0	493	661	533	
7	0	0	0	0	493	651	546	
8	0	0	0	0	493	641	554	
9	0	0	0	0	494	634	555	
10	0	0	0	0	492	628	580	
11	0	0	0	0	492	624	616	
12	0	0	0	0	493	623	643	
13	0	0	0	0	492	623	655	
14	0	0	0	0	494	621	673	
15	0	0	0	0	496	619	617	
0	0	0	0	0	498	615	615	
1	0	0	0	0	499	611	589	
2	0	0	0	0	502	608	561	
3	0	0	0	0	505	605	502	
4	0	0	0	0	509	604	505	
5	0	0	0	0	512	601	473	
6	0	0	0	0	515	597	443	
7	0	0	0	0	518	592	384	
8	0	0	0	0	520	588	390	
9	0	0	0	0	521	582	354	
10	0	0	0	0	523	575	397	
11	0	0	0	0	524	568	428	
12	0	0	0	0	523	560	490	
13	0	0	0	0	524	550	503	
14	0	0	0	0	527	538	521	
15	0	0	0	0	529	525	508	
0	0	0	0	0	530	508	505	
1	0	0	0	0	529	490	474	
2	0	0	0	0	528	470	493	
3	0	0	0	0	529	447	504	
4	0	0	0	0	528	424	557	
5	0	0	0	0	526	399	515	
6	0	0	0	0	525	374	529	
7	0	0	0	0	523	351	553	
8	0	0	0	0	523	328	507	
9	0	0	0	0	519	307	494	
10	0	0	0	0	516	287	483	
11	0	0	0	0	516	269	473	
12	0	0	0	0	515	253	504	
13	0	0	0	0	516	238	451	
14	0	0	0	0	515	222	441	
15	0	0	0	0	515	209	529	
0	0	0	0	0	513	200	835	
1	0	0	0	0	513	194	906	
2	0	0	0	0	513	188	642	
3	0	0	0	0	514	179	406	
4	0	0	0	0	514	169	276	
5	0	0	0	0	514	161	368	
6	0	0	0	0	514	152	408	
7	0	0	0	0	513	143	359	
8	0	0	0	0	510	136	397	
9	0	0	0	0	509	131	435	
10	0	0	0	0	506	130	449	
11	0	0	0	0	505	132	479	
12	0	0	0	0	503	132	506	
13	0	0	0	0	502	131	478	
14	0	0	0	0	503	129	521	
15	0	0	0	0	503	126	534	
0	0	0	0	0	502	127	601	
1	0	0	0	0	504	130	589	
2	0	0	0	0	504	132	557	
3	0	0	0	0	504	133	558	
4	0	0	0	0	504	134	569	
5	0	0	0	0	505	136	550	
6	0	0	0	0	506	142	547	
7	0	0	0	0	506	147	503	
8	0	0	0	0	506	153	460	
9	0	0	0	0	506	159	459	
10	0	0	0	0	507	166	427	
11	0	0	0	0	508	173	431	
12	0	0	0	0	513	180	432	
13	0	0	0	0	519	188	431	
14	0	0	0	0	523	195	459	
15	0	0	0	0	527	201	500	
0	0	0	0	0	529	207	521	
1	0	0	0	0	532	210	498	
2	0	0	0	0	534	213	516	
3	0	0	0	0	535	216	539	
4	0	0	0	0	536	216	508	
5	0	0	0	0	538	215	472	
6	0	0	0	0	540	213	469	
7	0	0	0	0	540	211	456	
8	0	0	0	0	542	210	455	
9	0	0	0	0	541	209	508	
10	0	0	0	0	540	209	558	
11	0	0	0	0	538	210	581	
12	0	0	0	0	539	215	635	
13	0	0	0	0	537	222	679	
14	0	0	0	0	535	229	695	
15	0	0	0	0	534	235	662	
0	0	0	0	0	533	241	662	
1	0	0	0	0	530	245	680	
2	0	0	0	0	526	247	667	
3	0	0	0	0	522	248	625	
4	0	0	0	0	520	247	599	
5	0	0	0	0	519	246	550	
6	0	0	0	0	516	241	554	
7	0	0	0	0	515	238	547	
8	0	0	0	0	514	233	507	
9	0	0	0	0	514	228	560	
10	0	0	0	0	513	223	793	
11	0	0	0	0	514	217	1022	
12	0	0	0	0	513	211	1006	
13	0	0	0	0	516	203	647	
14	0	0	0	0	515	197	450	
15	0	0	0	0	515	194	398	
0	0	0	0	0	515	191	408	
1	0	0	0	0	516	187	418	
2	0	0	0	0	515	183	408	
3	0	0	0	0	514	179	431	
4	0	0	0	0	515	176	440	
5	0	0	0	0	515	173	459	
6	0	0	0	0	513	170	503	
7	0	0	0	0	510	165	487	
8	0	0	0	0	508	159	488	
9	0	0	0	0	508	153	486	
10	0	0	0	0	504	148	492	
11	0	0	0	0	500	145	500	
12	0	0	0	0	497	142	488	
13	0	0	0	0	494	139	505	
14	0	0	0	0	492	137	512	
15	0	0	0	0	492	135	523	
0	0	0	0	0	492	135	506	
1	0	0	0	0	494	135	513	
2	0	0	0	0	499	136	502	
3	0	0	0	0	502	136	487	
4	0	0	0	0	507	136	466	
5	0	0	0	0	511	137	450	
6	0	0	0	0	515	137	439	
7	0	0	0	0	518	138	449	
8	0	0	0	0	521	139	457	
9	0	0	0	0	527	140	461	
10	0	0	0	0	530	143	451	
11	0	0	0	0	533	146	452	
12	0	0	0	0	537	150	444	
13	0	0	0	0	540	154	452	
14	0	0	0	0	541	159	459	
15	0	0	0	0	542	164	487	
0	0	0	0	0	543	169	487	
1	0	0	0	0	542	174	478	
2	0	0	0	0	541	179	498	
3	0	0	0	0	538	183	499	
4	0	0	0	0	536	187	509	
5	0	0	0	0	535	191	515	
6	0	0	0	0	533	194	502	
7	0	0	0	0	532	197	486	
8	0	0	0	0	530	199	483	
9	0	0	0	0	528	201	462	
10	0	0	0	0	527	204	469	
11	0	0	0	0	525	207	463	
12	0	0	0	0	524	209	491	
13	0	0	0	0	522	211	492	
14	0	0	0	0	520	212	493	
15	0	0	0	0	519	213	493	
0	0	0	0	0	517	216	481	
1	0	0	0	0	515	219	428	
2	0	0	0	0	512	221	452	
3	0	0	0	0	510	222	460	
4	0	0	0	0	511	225	451	
5	0	0	0	0	511	226	437	
6	0	0	0	0	510	228	448	
7	0	0	0	0	510	230	588	
8	0	0	0	0	510	232	931	
9	0	0	0	0	510	233	1022	
10	0	0	0	0	509	234	763	
11	0	0	0	0	511	234	466	
12	0	0	0	0	512	236	327	
13	0	0	0	0	512	240	349	
14	0	0	0	0	512	243	351	
15	0	0	0	0	511	245	344	
0	0	0	0	0	510	247	360	
1	0	0	0	0	508	249	390	
2	0	0	0	0	505	251	403	
3	0	0	0	0	504	254	434	
4	0	0	0	0	502	254	435	
5	0	0	0	0	498	254	448	
6	0	0	0	0	497	253	447	
7	0	0	0	0	495	251	476	
8	0	0	0	0	492	250	472	
9	0	0	0	0	489	249	494	
10	0	0	0	0	490	248	506	
11	0	0	0	0	492	247	510	
12	0	0	0	0	494	247	524	
13	0	0	0	0	496	247	546	
14	0	0	0	0	500	247	552	
15	0	0	0	0	504	248	540	
0	0	0	0	0	506	250	539	
1	0	0	0	0	510	252	531	
2	0	0	0	0	510	253	504	
3	0	0	0	0	511	255	487	
4	0	0	0	0	512	256	471	
5	0	0	0	0	514	259	500	
6	0	0	0	0	517	260	538	
7	0	0	0	0	518	260	523	
8	0	0	0	0	521	260	494	
9	0	0	0	0	523	261	439	
10	0	0	0	0	524	262	408	
11	0	0	0	0	526	262	380	
12	0	0	0	0	526	262	368	
13	0	0	0	0	527	263	382	
14	0	0	0	0	527	263	411	
15	0	0	0	0	526	263	427	
0	0	0	0	0	526	263	424	
1	0	0	0	0	527	263	423	
2	0	0	0	0	527	263	436	
3	0	0	0	0	527	264	472	
4	0	0	0	0	526	264	467	
5	0	0	0	0	524	267	457	
6	0	0	0	0	522	269	500	
7	0	0	0	0	520	273	507	
8	0	0	0	0	519	278	483	
9	0	0	0	0	519	286	458	
10	0	0	0	0	516	294	469	
11	0	0	0	0	515	301	440	
12	0	0	0	0	513	308	449	
13	0	0	0	0	512	316	527	
14	0	0	0	0	512	323	577	
15	0	0	0	0	511	329	599	
0	0	0	0	0	509	335	621	
1	0	0	0	0	509	341	611	
2	0	0	0	0	510	348	540	
3	0	0	0	0	509	355	483	
4	0	0	0	0	506	362	448	
5	0	0	0	0	505	370	451	
6	0	0	0	0	504	378	451	
7	0	0	0	0	504	386	422	
8	0	0	0	0	503	393	454	
9	0	0	0	0	502	401	664	
10	0	0	0	0	500	408	976	
11	0	0	0	0	499	417	1000	
12	0	0	0	0	499	425	624	
13	0	0	0	0	498	432	409	
14	0	0	0	0	498	438	278	
15	0	0	0	0	498	443	280	
0	0	0	0	0	496	444	278	
1	0	0	0	0	497	440	294	
2	0	0	0	0	497	434	304	
3	0	0	0	0	495	424	360	
4	0	0	0	0	496	412	420	
5	0	0	0	0	496	398	486	
6	0	0	0	0	496	381	519	
7	0	0	0	0	494	363	457	
8	0	0	0	0	494	345	418	
9	0	0	0	0	495	327	416	
10	0	0	0	0	494	310	422	
11	0	0	0	0	492	292	484	
12	0	0	0	0	492	273	558	
13	0	0	0	0	491	255	614	
14	0	0	0	0	490	237	691	
15	0	0	0	0	489	221	711	
0	0	0	0	0	491	210	703	
1	0	0	0	0	493	204	669	
2	0	0	0	0	497	201	626	
3	0	0	0	0	498	199	571	
4	0	0	0	0	501	200	498	
5	0	0	0	0	504	201	447	
6	0	0	0	0	506	201	418	
7	0	0	0	0	507	201	434	
8	0	0	0	0	510	201	466	
9	0	0	0	0	512	200	489	
10	0	0	0	0	514	199	503	
11	0	0	0	0	517	197	497	
12	0	0	0	0	518	196	500	
13	0	0	0	0	517	196	476	
14	0	0	0	0	516	197	453	
15	0	0	0	0	517	198	436	
0	0	0	0	0	518	199	424	
1	0	0	0	0	519	199	452	
2	0	0	0	0	519	197	465	
3	0	0	0	0	519	195	514	
4	0	0	0	0	519	193	543	
5	0	0	0	0	519	193	600	
6	0	0	0	0	515	195	590	
7	0	0	0	0	513	199	575	
8	0	0	0	0	512	204	545	
9	0	0	0	0	511	211	551	
10	0	0	0	0	510	219	544	
11	0	0	0	0	510	227	524	
12	0	0	0	0	508	237	558	
13	0	0	0	0	505	246	561	
14	0	0	0	0	504	255	581	
15	0	0	0	0	504	263	595	
0	0	0	0	0	504	271	615	
1	0	0	0	0	505	277	647	
2	0	0	0	0	504	284	651	
3	0	0	0	0	505	287	641	
4	0	0	0	0	503	292	597	
5	0	0	0	0	502	294	572	
6	0	0	0	0	502	297	556	
7	0	0	0	0	501	300	556	
8	0	0	0	0	500	303	543	
9	0	0	0	0	500	306	497	
10	0	0	0	0	499	309	550	
11	0	0	0	0	499	312	768	
12	0	0	0	0	499	316	1010	
13	0	0	0	0	497	321	896	
14	0	0	0	0	496	326	598	
15	0	0	0	0	496	329	404	
0	0	0	0	0	497	332	342	
1	0	0	0	0	497	334	373	
2	0	0	0	0	496	336	395	
3	0	0	0	0	497	341	400	
4	0	0	0	0	496	346	406	
5	0	0	0	0	495	352	410	
6	0	0	0	0	494	360	428	
7	0	0	0	0	493	367	453	
8	0	0	0	0	492	371	458	
9	0	0	0	0	492	374	502	
10	0	0	0	0	491	374	503	
11	0	0	0	0	491	373	512	
12	0	0	0	0	492	373	530	
13	0	0	0	0	493	372	553	
14	0	0	0	0	494	372	553	
15	0	0	0	0	495	371	564	
0	0	0	0	0	493	374	574	
1	0	0	0	0	492	377	555	
2	0	0	0	0	492	382	532	
3	0	0	0	0	492	386	513	
4	0	0	0	0	493	391	519	
5	0	0	0	0	495	394	506	
6	0	0	0	0	495	398	476	
7	0	0	0	0	495	401	459	
8	0	0	0	0	496	404	434	
9	0	0	0	0	499	408	448	
10	0	0	0	0	499	411	424	
11	0	0	0	0	500	413	450	
12	0	0	0	0	502	416	447	
13	0	0	0	0	503	419	457	
14	0	0	0	0	503	422	452	
15	0	0	0	0	504	426	472	
0	0	0	0	0	506	432	474	
1	0	0	0	0	506	435	477	
2	0	0	0	0	507	440	483	
3	0	0	0	0	507	444	481	
4	0	0	0	0	508	448	476	
5	0	0	0	0	508	451	489	
6	0	0	0	0	507	454	474	
7	0	0	0	0	506	456	483	
8	0	0	0	0	504	460	473	
9	0	0	0	0	504	463	497	
10	0	0	0	0	504	466	491	
11	0	0	0	0	505	470	481	
12	0	0	0	0	504	473	488	
13	0	0	0	0	504	478	483	
14	0	0	0	0	506	482	497	
15	0	0	0	0	507	486	510	
0	0	0	0	0	508	491	523	
1	0	0	0	0	508	496	542	
2	0	0	0	0	507	500	519	
3	0	0	0	0	505	504	487	
4	0	0	0	0	505	508	473	
5	0	0	0	0	505	512	439	
6	0	0	0	0	504	515	442	
7	0	0	0	0	503	518	462	
8	0	0	0	0	501	519	439	
9	0	0	0	0	500	520	442	
10	0	0	0	0	500	521	591	
11	0	0	0	0	498	523	889	
12	0	0	0	0	497	524	1001	
13	0	0	0	0	494	525	751	
14	0	0	0	0	492	524	507	
15	0	0	0	0	490	524	351	
0	0	0	0	0	486	525	344	
1	0	0	0	0	486	525	357	
2	0	0	0	0	486	527	381	
3	0	0	0	0	489	530	389	
4	0	0	0	0	491	533	427	
5	0	0	0	0	491	537	447	
6	0	0	0	0	492	540	455	
7	0	0	0	0	493	541	461	
8	0	0	0	0	494	539	469	
9	0	0	0	0	494	536	483	
10	0	0	0	0	494	533	491	
11	0	0	0	0	493	530	510	
12	0	0	0	0	493	527	504	
13	0	0	0	0	492	524	522	
14	0	0	0	0	493	522	538	
15	0	0	0	0	494	521	539	
0	0	0	0	0	494	522	559	
1	0	0	0	0	494	524	531	
2	0	0	0	0	492	526	543	
3	0	0	0	0	492	528	540	
4	0	0	0	0	493	530	518	
5	0	0	0	0	494	532	492	
6	0	0	0	0	494	535	463	
7	0	0	0	0	494	537	452	
8	0	0	0	0	495	539	420	
9	0	0	0	0	497	541	439	
10	0	0	0	0	499	543	439	
11	0	0	0	0	499	544	438	
12	0	0	0	0	501	546	464	
13	0	0	0	0	503	548	491	
14	0	0	0	0	504	553	500	
15	0	0	0	0	505	560	499	
0	0	0	0	0	503	568	501	
1	0	0	0	0	504	575	516	
2	0	0	0	0	504	583	523	
3	0	0	0	0	503	591	520	
4	0	0	0	0	502	600	520	
5	0	0	0	0	502	608	508	
6	0	0	0	0	500	616	492	
7	0	0	0	0	498	624	525	
8	0	0	0	0	496	631	513	
9	0	0	0	0	495	638	506	
10	0	0	0	0	492	645	518	
11	0	0	0	0	492	652	500	
12	0	0	0	0	489	659	519	
13	0	0	0	0	488	665	525	
14	0	0	0	0	488	671	523	
15	0	0	0	0	488	675	531	
0	0	0	0	0	491	678	559	
1	0	0	0	0	494	680	553	
2	0	0	0	0	496	683	532	
3	0	0	0	0	498	686	499	
4	0	0	0	0	499	688	477	
5	0	0	0	0	501	691	488	
6	0	0	0	0	502	693	480	
7	0	0	0	0	504	694	460	
8	0	0	0	0	506	694	469	
9	0	0	0	0	508	693	632	
10	0	0	0	0	510	691	970	
11	0	0	0	0	511	689	1022	
12	0	0	0	0	512	686	735	
13	0	0	0	0	513	680	472	
14	0	0	0	0	513	675	360	
15	0	0	0	0	512	670	364	
0	0	0	0	0	511	662	369	
1	0	0	0	0	508	654	386	
2	0	0	0	0	504	645	393	
3	0	0	0	0	500	634	402	
4	0	0	0	0	497	625	435	
5	0	0	0	0	494	615	462	
6	0	0	0	0	490	603	492	
7	0	0	0	0	490	591	478	
8	0	0	0	0	489	579	495	
9	0	0	0	0	487	566	510	
10	0	0	0	0	486	555	502	
11	0	0	0	0	483	544	526	
12	0	0	0	0	483	534	548	
13	0	0	0	0	481	524	564	
14	0	0	0	0	480	515	543	
15	0	0	0	0	481	507	567	
0	0	0	0	0	480	499	561	
1	0	0	0	0	481	493	540	
2	0	0	0	0	481	487	535	
3	0	0	0	0	482	481	511	
4	0	0	0	0	482	475	489	
5	0	0	0	0	486	469	470	
6	0	0	0	0	492	463	469	
7	0	0	0	0	495	459	461	
8	0	0	0	0	497	455	477	
9	0	0	0	0	500	451	481	
10	0	0	0	0	502	448	467	
11	0	0	0	0	504	445	483	
12	0	0	0	0	505	442	491	
13	0	0	0	0	505	440	504	
14	0	0	0	0	506	438	499	
15	0	0	0	0	506	436	517	
0	0	0	0	0	506	435	521	
1	0	0	0	0	509	435	513	
2	0	0	0	0	510	435	510	
3	0	0	0	0	509	434	521	
4	0	0	0	0	508	433	514	
5	0	0	0	0	510	432	511	
6	0	0	0	0	509	432	507	
7	0	0	0	0	508	431	518	
8	0	0	0	0	508	429	511	
9	0	0	0	0	508	427	521	
10	0	0	0	0	509	427	529	
11	0	0	0	0	506	426	523	
12	0	0	0	0	506	426	533	
13	0	0	0	0	508	427	527	
14	0	0	0	0	508	427	543	
15	0	0	0	0	510	427	534	
0	0	0	0	0	509	426	549	
1	0	0	0	0	508	426	552	
2	0	0	0	0	507	426	535	
3	0	0	0	0	507	427	522	
4	0	0	0	0	506	428	500	
5	0	0	0	0	505	428	483	
6	0	0	0	0	503	429	476	
7	0	0	0	0	500	429	474	
8	0	0	0	0	499	429	444	
9	0	0	0	0	496	428	509	
10	0	0	0	0	494	428	767	
11	0	0	0	0	492	429	1022	
12	0	0	0	0	490	431	1009	
13	0	0	0	0	489	432	625	
14	0	0	0	0	489	433	426	
15	0	0	0	0	491	437	353	
0	0	0	0	0	492	441	321	
1	0	0	0	0	495	445	356	
2	0	0	0	0	495	446	371	
3	0	0	0	0	494	447	384	
4	0	0	0	0	492	449	397	
5	0	0	0	0	492	451	417	
6	0	0	0	0	492	452	444	
7	0	0	0	0	492	452	450	
8	0	0	0	0	491	451	456	
9	0	0	0	0	493	448	456	
10	0	0	0	0	493	445	460	
11	0	0	0	0	493	442	473	
12	0	0	0	0	494	440	502	
13	0	0	0	0	494	438	503	
14	0	0	0	0	494	437	554	
15	0	0	0	0	493	437	552	
0	0	0	0	0	490	438	557	
1	0	0	0	0	491	439	556	
2	0	0	0	0	491	440	539	
3	0	0	0	0	492	441	535	
4	0	0	0	0	493	442	517	
5	0	0	0	0	494	442	498	
6	0	0	0	0	495	443	488	
7	0	0	0	0	496	444	481	
8	0	0	0	0	498	445	474	
9	0	0	0	0	499	446	467	
10	0	0	0	0	500	447	463	
11	0	0	0	0	499	447	463	
12	0	0	0	0	501	448	456	
13	0	0	0	0	502	449	478	
14	0	0	0	0	503	451	474	
15	0	0	0	0	505	454	487	
0	0	0	0	0	507	458	489	
1	0	0	0	0	508	461	488	
2	0	0	0	0	510	464	485	
3	0	0	0	0	511	466	468	
4	0	0	0	0	512	469	475	
5	0	0	0	0	510	472	484	
6	0	0	0	0	506	473	470	
7	0	0	0	0	503	476	498	
8	0	0	0	0	499	478	492	
9	0	0	0	0	497	479	486	
10	0	0	0	0	496	482	480	
11	0	0	0	0	495	486	495	
12	0	0	0	0	494	490	502	
13	0	0	0	0	495	496	498	
14	0	0	0	0	495	502	498	
15	0	0	0	0	495	509	507	
0	0	0	0	0	496	515	513	
1	0	0	0	0	498	522	515	
2	0	0	0	0	496	529	548	
3	0	0	0	0	496	535	552	
4	0	0	0	0	495	541	542	
5	0	0	0	0	496	547	503	
6	0	0	0	0	497	553	477	
7	0	0	0	0	497	559	473	
8	0	0	0	0	497	564	496	
9	0	0	0	0	498	571	472	
10	0	0	0	0	499	578	454	
11	0	0	0	0	501	585	585	
12	0	0	0	0	502	593	911	
13	0	0	0	0	501	600	1022	
14	0	0	0	0	499	608	793	
15	0	0	0	0	499	614	498	
0	0	0	0	0	499	621	365	
1	0	0	0	0	499	628	359	
2	0	0	0	0	497	635	372	
3	0	0	0	0	497	639	383	
4	0	0	0	0	498	643	408	
5	0	0	0	0	496	647	410	
6	0	0	0	0	495	651	432	
7	0	0	0	0	494	655	465	
8	0	0	0	0	494	658	480	
9	0	0	0	0	493	656	479	
10	0	0	0	0	493	651	494	
11	0	0	0	0	492	641	503	
12	0	0	0	0	491	631	484	
13	0	0	0	0	489	619	504	
14	0	0	0	0	489	606	536	
15	0	0	0	0	487	594	544	
0	0	0	0	0	487	581	550	
1	0	0	0	0	488	569	606	
2	0	0	0	0	489	557	599	
3	0	0	0	0	488	546	584	
4	0	0	0	0	490	535	574	
5	0	0	0	0	492	523	530	
6	0	0	0	0	494	511	513	
7	0	0	0	0	494	498	494	
8	0	0	0	0	495	485	473	
9	0	0	0	0	496	473	475	
10	0	0	0	0	498	462	468	
11	0	0	0	0	499	454	465	
12	0	0	0	0	499	446	471	
13	0	0	0	0	502	441	469	
14	0	0	0	0	504	438	474	
15	0	0	0	0	503	435	494	
0	0	0	0	0	504	435	500	
1	0	0	0	0	506	436	494	
2	0	0	0	0	507	436	487	
3	0	0	0	0	509	436	513	
4	0	0	0	0	510	436	486	
5	0	0	0	0	509	438	489	
6	0	0	0	0	509	440	484	
7	0	0	0	0	506	444	442	
8	0	0	0	0	504	448	456	
9	0	0	0	0	503	454	475	
10	0	0	0	0	500	460	488	
11	0	0	0	0	498	466	506	
12	0	0	0	0	496	472	508	
13	0	0	0	0	496	478	508	
14	0	0	0	0	493	485	540	
15	0	0	0	0	493	492	545	
0	0	0	0	0	493	499	528	
1	0	0	0	0	495	505	542	
2	0	0	0	0	495	513	549	
3	0	0	0	0	495	519	536	
4	0	0	0	0	496	527	513	
5	0	0	0	0	497	534	492	
6	0	0	0	0	498	540	471	
7	0	0	0	0	501	546	461	
8	0	0	0	0	502	550	481	
9	0	0	0	0	503	552	490	
10	0	0	0	0	505	554	452	
11	0	0	0	0	506	554	576	
12	0	0	0	0	510	555	873	
13	0	0	0	0	510	555	1021	
14	0	0	0	0	510	555	818	
15	0	0	0	0	508	553	541	
0	0	0	0	0	507	549	381	
1	0	0	0	0	504	545	351	
2	0	0	0	0	501	539	376	
3	0	0	0	0	501	531	376	
4	0	0	0	0	498	526	384	
5	0	0	0	0	496	523	393	
6	0	0	0	0	492	519	405	
7	0	0	0	0	490	518	425	
8	0	0	0	0	490	514	439	
9	0	0	0	0	489	507	440	
10	0	0	0	0	487	496	459	
11	0	0	0	0	485	483	483	
12	0	0	0	0	484	470	480	
13	0	0	0	0	486	458	495	
14	0	0	0	0	486	448	504	
15	0	0	0	0	486	439	520	
0	0	0	0	0	488	432	528	
1	0	0	0	0	489	428	535	
2	0	0	0	0	489	424	545	
3	0	0	0	0	491	422	553	
4	0	0	0	0	494	421	534	
5	0	0	0	0	496	419	529	
6	0	0	0	0	498	416	505	
7	0	0	0	0	499	413	489	
8	0	0	0	0	499	410	460	
9	0	0	0	0	499	407	485	
10	0	0	0	0	499	405	474	
11	0	0	0	0	500	403	471	
12	0	0	0	0	501	401	480	
13	0	0	0	0	504	399	467	
14	0	0	0	0	505	398	466	
15	0	0	0	0	505	398	501	
0	0	0	0	0	504	399	513	
1	0	0	0	0	503	400	526	
2	0	0	0	0	503	403	522	
3	0	0	0	0	502	406	544	
4	0	0	0	0	502	408	543	
5	0	0	0	0	504	409	540	
6	0	0	0	0	505	410	529	
7	0	0	0	0	505	411	536	
8	0	0	0	0	505	413	524	
9	0	0	0	0	505	416	520	
10	0	0	0	0	504	421	505	
11	0	0	0	0	501	427	513	
12	0	0	0	0	500	433	510	
13	0	0	0	0	500	441	515	
14	0	0	0	0	500	448	533	
15	0	0	0	0	499	456	549	
0	0	0	0	0	497	464	560	
1	0	0	0	0	496	472	590	
2	0	0	0	0	495	480	571	
3	0	0	0	0	495	487	554	
4	0	0	0	0	494	495	529	
5	0	0	0	0	495	501	490	
6	0	0	0	0	496	506	483	
7	0	0	0	0	497	510	489	
8	0	0	0	0	498	512	467	
9	0	0	0	0	500	512	446	
10	0	0	0	0	500	511	589	
11	0	0	0	0	501	511	860	
12	0	0	0	0	501	511	995	
13	0	0	0	0	502	510	788	
14	0	0	0	0	502	507	539	
15	0	0	0	0	499	502	384	
0	0	0	0	0	498	499	345	
1	0	0	0	0	496	495	355	
2	0	0	0	0	492	492	363	
3	0	0	0	0	491	493	368	
4	0	0	0	0	489	493	406	
5	0	0	0	0	489	495	412	
6	0	0	0	0	488	497	434	
7	0	0	0	0	487	497	465	
8	0	0	0	0	487	494	481	
9	0	0	0	0	488	488	490	
10	0	0	0	0	489	481	510	
11	0	0	0	0	488	473	489	
12	0	0	0	0	488	465	524	
13	0	0	0	0	491	459	524	
14	0	0	0	0	494	454	553	
15	0	0	0	0	496	450	549	
0	0	0	0	0	497	448	549	
1	0	0	0	0	498	447	551	
2	0	0	0	0	498	447	555	
3	0	0	0	0	498	447	524	
4	0	0	0	0	500	446	534	
5	0	0	0	0	503	445	499	
6	0	0	0	0	504	444	483	
7	0	0	0	0	503	442	457	
8	0	0	0	0	502	439	465	
9	0	0	0	0	503	435	447	
10	0	0	0	0	502	432	452	
11	0	0	0	0	504	428	458	
12	0	0	0	0	504	424	462	
13	0	0	0	0	505	422	474	
14	0	0	0	0	505	420	460	
15	0	0	0	0	505	418	509	
0	0	0	0	0	505	417	512	
1	0	0	0	0	506	417	520	
2	0	0	0	0	507	417	525	
3	0	0	0	0	506	416	514	
4	0	0	0	0	507	414	506	
5	0	0	0	0	507	412	500	
6	0	0	0	0	506	410	496	
7	0	0	0	0	504	409	479	
8	0	0	0	0	502	409	461	
9	0	0	0	0	501	411	471	
10	0	0	0	0	503	413	482	
11	0	0	0	0	503	416	479	
12	0	0	0	0	503	417	477	
13	0	0	0	0	505	419	487	
14	0	0	0	0	504	419	515	
15	0	0	0	0	502	419	523	
0	0	0	0	0	501	419	556	
1	0	0	0	0	500	418	562	
2	0	0	0	0	500	418	538	
3	0	0	0	0	499	418	518	
4	0	0	0	0	499	417	473	
5	0	0	0	0	498	417	472	
6	0	0	0	0	496	417	457	
7	0	0	0	0	496	418	460	
8	0	0	0	0	495	416	438	
9	0	0	0	0	496	416	520	
10	0	0	0	0	497	417	774	
11	0	0	0	0	499	420	1009	
12	0	0	0	0	500	424	921	
13	0	0	0	0	501	428	648	
14	0	0	0	0	502	432	416	
15	0	0	0	0	502	437	344	
0	0	0	0	0	500	443	364	
1	0	0	0	0	496	448	344	
2	0	0	0	0	495	454	370	
3	0	0	0	0	495	461	400	
4	0	0	0	0	496	467	407	
5	0	0	0	0	498	476	424	
6	0	0	0	0	498	485	446	
7	0	0	0	0	496	492	473	
8	0	0	0	0	497	497	482	
9	0	0	0	0	496	499	502	
10	0	0	0	0	495	499	504	
11	0	0	0	0	493	498	518	
12	0	0	0	0	494	495	522	
13	0	0	0	0	496	491	542	
14	0	0	0	0	497	485	544	
15	0	0	0	0	499	479	551	
0	0	0	0	0	499	474	567	
1	0	0	0	0	499	469	561	
2	0	0	0	0	499	465	547	
3	0	0	0	0	499	462	533	
4	0	0	0	0	500	460	536	
5	0	0	0	0	501	458	505	
6	0	0	0	0	502	456	515	
7	0	0	0	0	503	453	504	
8	0	0	0	0	504	448	494	
9	0	0	0	0	506	442	482	
10	0	0	0	0	509	435	488	
11	0	0	0	0	511	428	492	
12	0	0	0	0	512	422	496	
13	0	0	0	0	513	415	502	
14	0	0	0	0	514	411	509	
15	0	0	0	0	513	407	523	
0	0	0	0	0	514	404	538	
1	0	0	0	0	515	401	550	
2	0	0	0	0	514	399	556	
3	0	0	0	0	512	395	539	
4	0	0	0	0	513	390	544	
5	0	0	0	0	513	385	547	
6	0	0	0	0	511	379	541	
7	0	0	0	0	509	373	534	
8	0	0	0	0	507	368	515	
9	0	0	0	0	506	362	525	
10	0	0	0	0	505	358	518	
11	0	0	0	0	503	354	521	
12	0	0	0	0	501	350	499	
13	0	0	0	0	499	347	532	
14	0	0	0	0	498	345	544	
15	0	0	0	0	496	344	524	
0	0	0	0	0	497	342	531	
1	0	0	0	0	499	342	554	
2	0	0	0	0	499	342	548	
3	0	0	0	0	501	344	527	
4	0	0	0	0	503	345	504	
5	0	0	0	0	505	349	477	
6	0	0	0	0	508	354	462	
7	0	0	0	0	510	360	454	
8	0	0	0	0	510	366	477	
9	0	0	0	0	508	371	448	
10	0	0	0	0	508	376	512	
11	0	0	0	0	509	380	755	
12	0	0	0	0	508	385	1021	
13	0	0	0	0	507	391	948	
14	0	0	0	0	506	397	624	
15	0	0	0	0	504	402	405	
0	0	0	0	0	503	408	339	
1	0	0	0	0	502	416	346	
2	0	0	0	0	500	422	347	
3	0	0	0	0	499	426	348	
4	0	0	0	0	499	431	391	
5	0	0	0	0	499	436	419	
6	0	0	0	0	498	441	427	
7	0	0	0	0	498	447	442	
8	0	0	0	0	497	451	442	
9	0	0	0	0	496	454	457	
10	0	0	0	0	497	454	459	
11	0	0	0	0	498	453	484	
12	0	0	0	0	500	449	492	
13	0	0	0	0	501	444	512	
14	0	0	0	0	501	439	518	
15	0	0	0	0	500	433	553	
0	0	0	0	0	499	427	550	
1	0	0	0	0	498	421	540	
2	0	0	0	0	496	415	524	
3	0	0	0	0	495	409	534	
4	0	0	0	0	497	403	508	
5	0	0	0	0	499	397	463	
6	0	0	0	0	501	390	476	
7	0	0	0	0	502	384	447	
8	0	0	0	0	504	379	437	
9	0	0	0	0	506	376	421	
10	0	0	0	0	508	373	427	
11	0	0	0	0	510	371	448	
12	0	0	0	0	511	370	460	
13	0	0	0	0	513	370	471	
14	0	0	0	0	514	371	474	
15	0	0	0	0	515	371	474	
0	0	0	0	0	515	373	479	
1	0	0	0	0	515	375	496	
2	0	0	0	0	515	375	491	
3	0	0	0	0	513	376	501	
4	0	0	0	0	514	378	502	
5	0	0	0	0	517	380	502	
6	0	0	0	0	518	378	510	
7	0	0	0	0	519	374	503	
8	0	0	0	0	518	366	496	
9	0	0	0	0	519	356	479	
10	0	0	0	0	518	348	471	
11	0	0	0	0	516	341	463	
12	0	0	0	0	513	335	494	
13	0	0	0	0	512	330	536	
14	0	0	0	0	509	326	539	
15	0	0	0	0	507	323	532	
0	0	0	0	0	505	321	554	
1	0	0	0	0	504	321	577	
2	0	0	0	0	502	321	597	
3	0	0	0	0	500	323	609	
4	0	0	0	0	500	324	621	
5	0	0	0	0	500	324	611	
6	0	0	0	0	502	325	567	
7	0	0	0	0	504	326	507	
8	0	0	0	0	506	329	519	
9	0	0	0	0	507	333	515	
10	0	0	0	0	506	338	526	
11	0	0	0	0	508	342	510	
12	0	0	0	0	508	346	510	
13	0	0	0	0	508	349	694	
14	0	0	0	0	508	354	963	
15	0	0	0	0	509	359	1019	
0	0	0	0	0	508	364	724	
1	0	0	0	0	508	369	464	
2	0	0	0	0	507	376	327	
3	0	0	0	0	504	383	323	
4	0	0	0	0	501	390	331	
5	0	0	0	0	500	396	324	
6	0	0	0	0	501	404	351	
7	0	0	0	0	500	413	363	
8	0	0	0	0	499	421	390	
9	0	0	0	0	499	430	410	
10	0	0	0	0	499	434	405	
11	0	0	0	0	499	434	455	
12	0	0	0	0	498	430	467	
13	0	0	0	0	498	423	472	
14	0	0	0	0	499	416	485	
15	0	0	0	0	498	409	494	
0	0	0	0	0	499	403	501	
1	0	0	0	0	500	400	527	
2	0	0	0	0	501	399	524	
3	0	0	0	0	501	399	558	
4	0	0	0	0	501	402	552	
5	0	0	0	0	504	405	533	
6	0	0	0	0	505	408	513	
7	0	0	0	0	506	410	512	
8	0	0	0	0	506	412	483	
9	0	0	0	0	508	414	458	
10	0	0	0	0	510	414	451	
11	0	0	0	0	512	415	435	
12	0	0	0	0	513	416	437	
13	0	0	0	0	514	415	424	
14	0	0	0	0	514	415	446	
15	0	0	0	0	515	415	446	
0	0	0	0	0	517	416	457	
1	0	0	0	0	517	418	464	
2	0	0	0	0	518	422	484	
3	0	0	0	0	518	426	481	
4	0	0	0	0	517	430	492	
5	0	0	0	0	516	434	510	
6	0	0	0	0	517	437	523	
7	0	0	0	0	516	440	516	
8	0	0	0	0	515	441	524	
9	0	0	0	0	513	442	515	
10	0	0	0	0	512	442	513	
11	0	0	0	0	512	441	526	
12	0	0	0	0	510	440	520	
13	0	0	0	0	509	440	503	
14	0	0	0	0	510	440	509	
15	0	0	0	0	511	440	529	
0	0	0	0	0	511	440	540	
1	0	0	0	0	511	442	529	
2	0	0	0	0	511	444	563	
3	0	0	0	0	510	447	572	
4	0	0	0	0	509	450	578	
5	0	0	0	0	509	452	530	
6	0	0	0	0	510	454	534	
7	0	0	0	0	510	456	499	
8	0	0	0	0	509	459	494	
9	0	0	0	0	509	461	476	
10	0	0	0	0	509	463	489	
11	0	0	0	0	507	465	486	
12	0	0	0	0	507	467	568	
13	0	0	0	0	508	470	831	
14	0	0	0	0	507	472	1012	
15	0	0	0	0	506	475	855	
0	0	0	0	0	506	477	590	
1	0	0	0	0	505	476	421	
2	0	0	0	0	503	478	353	
3	0	0	0	0	502	479	367	
4	0	0	0	0	501	481	380	
5	0	0	0	0	503	487	393	
6	0	0	0	0	503	492	403	
7	0	0	0	0	502	497	440	
8	0	0	0	0	501	502	438	
9	0	0	0	0	501	505	450	
10	0	0	0	0	502	505	484	
11	0	0	0	0	504	501	496	
12	0	0	0	0	504	495	505	
13	0	0	0	0	505	487	491	
14	0	0	0	0	506	480	520	
15	0	0	0	0	507	473	527	
0	0	0	0	0	505	467	544	
1	0	0	0	0	505	463	542	
2	0	0	0	0	504	461	535	
3	0	0	0	0	504	460	563	
4	0	0	0	0	505	460	557	
5	0	0	0	0	504	462	551	
6	0	0	0	0	504	463	518	
7	0	0	0	0	504	463	502	
8	0	0	0	0	504	463	484	
9	0	0	0	0	504	464	474	
10	0	0	0	0	503	466	456	
11	0	0	0	0	505	468	450	
12	0	0	0	0	505	471	456	
13	0	0	0	0	507	473	466	
14	0	0	0	0	509	474	463	
15	0	0	0	0	511	476	461	
0	0	0	0	0	513	480	451	
1	0	0	0	0	514	487	467	
2	0	0	0	0	513	499	457	
3	0	0	0	0	513	514	449	
4	0	0	0	0	515	531	464	
5	0	0	0	0	516	549	470	
6	0	0	0	0	517	567	477	
7	0	0	0	0	517	584	497	
8	0	0	0	0	518	600	506	
9	0	0	0	0	517	614	500	
10	0	0	0	0	516	627	514	
11	0	0	0	0	515	640	511	
12	0	0	0	0	515	652	499	
13	0	0	0	0	513	664	504	
14	0	0	0	0	513	675	513	
15	0	0	0	0	513	686	539	
0	0	0	0	0	511	695	549	
1	0	0	0	0	511	702	551	
2	0	0	0	0	510	709	593	
3	0	0	0	0	512	715	597	
4	0	0	0	0	513	721	609	
5	0	0	0	0	514	727	580	
6	0	0	0	0	513	732	543	
7	0	0	0	0	513	738	537	
8	0	0	0	0	512	744	531	
9	0	0	0	0	512	749	531	
10	0	0	0	0	510	753	507	
11	0	0	0	0	510	755	526	
12	0	0	0	0	510	757	727	
13	0	0	0	0	508	759	1009	
14	0	0	0	0	508	760	1022	
15	0	0	0	0	509	762	736	
0	0	0	0	0	507	762	480	
1	0	0	0	0	506	763	356	
2	0	0	0	0	508	765	376	
3	0	0	0	0	510	765	361	
4	0	0	0	0	512	765	356	
5	0	0	0	0	512	763	369	
6	0	0	0	0	512	759	398	
7	0	0	0	0	513	758	425	
8	0	0	0	0	513	756	439	
9	0	0	0	0	514	752	457	
10	0	0	0	0	515	746	461	
11	0	0	0	0	516	738	479	
12	0	0	0	0	515	728	478	
13	0	0	0	0	513	716	494	
14	0	0	0	0	511	704	484	
15	0	0	0	0	509	691	503	
0	0	0	0	0	510	677	539	
1	0	0	0	0	510	664	522	
2	0	0	0	0	507	652	512	
3	0	0	0	0	506	639	513	
4	0	0	0	0	505	628	509	
5	0	0	0	0	504	618	488	
6	0	0	0	0	502	607	461	
7	0	0	0	0	501	597	433	
8	0	0	0	0	502	586	413	
9	0	0	0	0	502	575	409	
10	0	0	0	0	503	564	427	
11	0	0	0	0	504	553	442	
12	0	0	0	0	507	542	440	
13	0	0	0	0	511	531	449	
14	0	0	0	0	513	519	440	
15	0	0	0	0	516	507	465	
0	0	0	0	0	519	496	468	
1	0	0	0	0	520	487	473	
2	0	0	0	0	519	479	490	
3	0	0	0	0	520	472	506	
4	0	0	0	0	520	466	523	
5	0	0	0	0	523	460	528	
6	0	0	0	0	525	456	523	
7	0	0	0	0	527	452	542	
8	0	0	0	0	527	448	534	
9	0	0	0	0	530	444	523	
10	0	0	0	0	531	441	528	
11	0	0	0	0	531	437	525	
12	0	0	0	0	531	435	500	
13	0	0	0	0	529	435	524	
14	0	0	0	0	529	435	512	
15	0	0	0	0	527	436	527	
0	0	0	0	0	527	438	542	
1	0	0	0	0	524	440	537	
2	0	0	0	0	523	442	533	
3	0	0	0	0	521	444	561	
4	0	0	0	0	518	446	585	
5	0	0	0	0	515	448	604	
6	0	0	0	0	515	450	585	
7	0	0	0	0	514	452	551	
8	0	0	0	0	512	453	528	
9	0	0	0	0	513	455	515	
10	0	0	0	0	514	456	520	
11	0	0	0	0	513	458	514	
12	0	0	0	0	514	461	480	
13	0	0	0	0	514	464	600	
14	0	0	0	0	514	467	928	
15	0	0	0	0	512	471	1022	
0	0	0	0	0	515	475	882	
1	0	0	0	0	518	477	555	
2	0	0	0	0	518	480	373	
3	0	0	0	0	517	486	359	
4	0	0	0	0	517	492	367	
5	0	0	0	0	517	497	362	
6	0	0	0	0	516	500	350	
7	0	0	0	0	516	502	407	
8	0	0	0	0	516	505	415	
9	0	0	0	0	517	509	413	
10	0	0	0	0	516	514	456	
11	0	0	0	0	514	520	471	
12	0	0	0	0	512	526	460	
13	0	0	0	0	511	533	481	
14	0	0	0	0	511	540	475	
15	0	0	0	0	509	548	474	
0	0	0	0	0	507	556	477	
1	0	0	0	0	504	563	470	
2	0	0	0	0	502	571	482	
3	0	0	0	0	501	578	499	
4	0	0	0	0	502	585	508	
5	0	0	0	0	504	592	503	
6	0	0	0	0	506	598	504	
7	0	0	0	0	507	604	479	
8	0	0	0	0	509	609	468	
9	0	0	0	0	512	614	434	
10	0	0	0	0	513	617	421	
11	0	0	0	0	515	621	415	
12	0	0	0	0	517	624	420	
13	0	0	0	0	519	626	429	
14	0	0	0	0	523	628	451	
15	0	0	0	0	526	629	466	
0	0	0	0	0	526	630	467	
1	0	0	0	0	526	630	490	
2	0	0	0	0	524	631	482	
3	0	0	0	0	525	632	496	
4	0	0	0	0	526	635	508	
5	0	0	0	0	526	637	512	
6	0	0	0	0	527	640	510	
7	0	0	0	0	526	643	501	
8	0	0	0	0	527	646	522	
9	0	0	0	0	528	649	518	
10	0	0	0	0	526	653	517	
11	0	0	0	0	525	656	513	
12	0	0	0	0	526	661	509	
13	0	0	0	0	526	664	510	
14	0	0	0	0	524	667	513	
15	0	0	0	0	523	670	515	
0	0	0	0	0	524	671	496	
1	0	0	0	0	527	672	480	
2	0	0	0	0	527	670	479	
3	0	0	0	0	526	667	496	
4	0	0	0	0	526	662	503	
5	0	0	0	0	527	654	521	
6	0	0	0	0	526	643	533	
7	0	0	0	0	524	632	573	
8	0	0	0	0	522	620	542	
9	0	0	0	0	521	607	490	
10	0	0	0	0	520	595	465	
11	0	0	0	0	519	583	466	
12	0	0	0	0	516	572	465	
13	0	0	0	0	515	560	451	
14	0	0	0	0	511	548	452	
15	0	0	0	0	508	536	616	
0	0	0	0	0	508	523	947	
1	0	0	0	0	511	510	1022	
2	0	0	0	0	512	498	755	
3	0	0	0	0	511	484	475	
4	0	0	0	0	511	471	364	
5	0	0	0	0	513	460	350	
6	0	0	0	0	513	451	371	
7	0	0	0	0	513	440	368	
8	0	0	0	0	513	428	403	
9	0	0	0	0	514	417	430	
10	0	0	0	0	515	407	451	
11	0	0	0	0	513	398	460	
12	0	0	0	0	512	391	493	
13	0	0	0	0	511	384	495	
14	0	0	0	0	511	375	522	
15	0	0	0	0	510	367	516	
0	0	0	0	0	508	359	532	
1	0	0	0	0	505	350	545	
2	0	0	0	0	504	342	569	
3	0	0	0	0	503	334	568	
4	0	0	0	0	503	325	584	
5	0	0	0	0	502	316	585	
6	0	0	0	0	502	307	579	
7	0	0	0	0	502	299	588	
8	0	0	0	0	505	292	579	
9	0	0	0	0	510	286	551	
10	0	0	0	0	511	280	512	
11	0	0	0	0	512	274	485	
12	0	0	0	0	513	268	473	
13	0	0	0	0	515	262	450	
14	0	0	0	0	519	257	468	
15	0	0	0	0	521	254	457	
0	0	0	0	0	521	249	466	
1	0	0	0	0	521	247	449	
2	0	0	0	0	521	245	451	
3	0	0	0	0	522	242	458	
4	0	0	0	0	523	238	445	
5	0	0	0	0	524	234	483	
6	0	0	0	0	526	229	498	
7	0	0	0	0	528	223	488	
8	0	0	0	0	529	216	492	
9	0	0	0	0	533	208	504	
10	0	0	0	0	532	201	508	
11	0	0	0	0	532	196	504	
12	0	0	0	0	532	192	516	
13	0	0	0	0	532	187	519	
14	0	0	0	0	533	184	513	
15	0	0	0	0	532	184	507	
0	0	0	0	0	530	185	507	
1	0	0	0	0	528	187	507	
2	0	0	0	0	525	188	538	
3	0	0	0	0	524	190	529	
4	0	0	0	0	523	192	554	
5	0	0	0	0	524	192	540	
6	0	0	0	0	523	192	553	
7	0	0	0	0	522	192	569	
8	0	0	0	0	521	192	537	
9	0	0	0	0	519	192	527	
10	0	0	0	0	519	193	495	
11	0	0	0	0	518	197	488	
12	0	0	0	0	515	199	488	
13	0	0	0	0	516	202	485	
14	0	0	0	0	516	207	485	
15	0	0	0	0	516	211	473	
0	0	0	0	0	518	217	638	
1	0	0	0	0	518	224	931	
2	0	0	0	0	516	234	1010	
3	0	0	0	0	516	242	745	
4	0	0	0	0	518	249	497	
5	0	0	0	0	518	254	359	
6	0	0	0	0	519	260	356	
7	0	0	0	0	516	263	366	
8	0	0	0	0	517	264	385	
9	0	0	0	0	516	266	412	
10	0	0	0	0	514	265	432	
11	0	0	0	0	513	264	440	
12	0	0	0	0	511	264	483	
13	0	0	0	0	509	260	494	
14	0	0	0	0	508	254	510	
15	0	0	0	0	507	244	541	
0	0	0	0	0	506	230	544	
1	0	0	0	0	504	214	547	
2	0	0	0	0	503	198	550	
3	0	0	0	0	504	182	572	
4	0	0	0	0	505	169	544	
5	0	0	0	0	509	162	590	
6	0	0	0	0	510	159	592	
7	0	0	0	0	513	156	585	
8	0	0	0	0	515	158	585	
9	0	0	0	0	518	160	548	
10	0	0	0	0	519	163	544	
11	0	0	0	0	521	168	495	
12	0	0	0	0	521	174	461	
13	0	0	0	0	522	181	429	
14	0	0	0	0	523	189	412	
15	0	0	0	0	526	197	408	
0	0	0	0	0	526	205	403	
1	0	0	0	0	528	213	408	
2	0	0	0	0	528	220	430	
3	0	0	0	0	529	227	437	
4	0	0	0	0	529	233	441	
5	0	0	0	0	528	242	449	
6	0	0	0	0	529	247	464	
7	0	0	0	0	529	254	470	
8	0	0	0	0	529	260	478	
9	0	0	0	0	529	266	492	
10	0	0	0	0	527	271	491	
11	0	0	0	0	526	275	475	
12	0	0	0	0	526	279	474	
13	0	0	0	0	524	283	481	
14	0	0	0	0	524	285	484	
15	0	0	0	0	524	289	499	
0	0	0	0	0	525	292	470	
1	0	0	0	0	525	294	495	
2	0	0	0	0	524	298	505	
3	0	0	0	0	521	302	531	
4	0	0	0	0	520	306	518	
5	0	0	0	0	519	308	542	
6	0	0	0	0	518	312	546	
7	0	0	0	0	516	314	560	
8	0	0	0	0	516	318	540	
9	0	0	0	0	516	321	527	
10	0	0	0	0	518	326	500	
11	0	0	0	0	518	329	496	
12	0	0	0	0	517	332	492	
13	0	0	0	0	517	334	484	
14	0	0	0	0	516	335	481	
15	0	0	0	0	516	337	642	
0	0	0	0	0	517	340	903	
1	0	0	0	0	516	344	968	
2	0	0	0	0	516	348	756	
3	0	0	0	0	515	350	509	
4	0	0	0	0	516	352	365	
5	0	0	0	0	515	353	366	
6	0	0	0	0	515	355	360	
7	0	0	0	0	513	357	360	
8	0	0	0	0	511	364	395	
9	0	0	0	0	512	371	409	
10	0	0	0	0	512	378	432	
11	0	0	0	0	513	386	439	
12	0	0	0	0	513	393	457	
13	0	0	0	0	514	397	480	
14	0	0	0	0	514	399	480	
15	0	0	0	0	513	399	496	
0	0	0	0	0	512	398	503	
1	0	0	0	0	511	396	535	
2	0	0	0	0	509	395	543	
3	0	0	0	0	508	394	549	
4	0	0	0	0	506	395	568	
5	0	0	0	0	505	396	564	
6	0	0	0	0	505	398	582	
7	0	0	0	0	506	401	581	
8	0	0	0	0	507	403	571	
9	0	0	0	0	510	404	544	
10	0	0	0	0	511	406	519	
11	0	0	0	0	513	405	504	
12	0	0	0	0	513	404	478	
13	0	0	0	0	516	403	487	
14	0	0	0	0	518	401	475	
15	0	0	0	0	520	400	473	
0	0	0	0	0	520	399	478	
1	0	0	0	0	523	399	480	
2	0	0	0	0	526	398	484	
3	0	0	0	0	527	398	499	
4	0	0	0	0	528	398	519	
5	0	0	0	0	529	399	519	
6	0	0	0	0	529	402	535	
7	0	0	0	0	530	405	524	
8	0	0	0	0	529	408	536	
9	0	0	0	0	528	412	531	
10	0	0	0	0	528	415	512	
11	0	0	0	0	528	417	517	
12	0	0	0	0	526	421	513	
13	0	0	0	0	524	425	511	
14	0	0	0	0	524	429	519	
15	0	0	0	0	524	434	535	
0	0	0	0	0	524	439	541	
1	0	0	0	0	525	443	562	
2	0	0	0	0	526	448	552	
3	0	0	0	0	525	454	568	
4	0	0	0	0	525	460	590	
5	0	0	0	0	524	466	579	
6	0	0	0	0	524	472	560	
7	0	0	0	0	522	477	515	
8	0	0	0	0	522	481	494	
9	0	0	0	0	521	487	493	
10	0	0	0	0	520	491	495	
11	0	0	0	0	521	496	478	
12	0	0	0	0	519	499	467	
13	0	0	0	0	515	503	554	
14	0	0	0	0	512	505	842	
15	0	0	0	0	512	509	1022	
0	0	0	0	0	511	514	884	
1	0	0	0	0	510	519	596	
2	0	0	0	0	510	522	402	
3	0	0	0	0	511	526	330	
4	0	0	0	0	511	529	380	
5	0	0	0	0	512	530	378	
6	0	0	0	0	512	528	387	
7	0	0	0	0	513	525	397	
8	0	0	0	0	514	521	423	
9	0	0	0	0	514	519	447	
10	0	0	0	0	515	517	475	
11	0	0	0	0	514	514	480	
12	0	0	0	0	512	509	483	
13	0	0	0	0	510	502	492	
14	0	0	0	0	508	493	527	
15	0	0	0	0	508	482	542	
0	0	0	0	0	507	470	556	
1	0	0	0	0	507	459	580	
2	0	0	0	0	508	447	596	
3	0	0	0	0	508	436	600	
4	0	0	0	0	509	425	598	
5	0	0	0	0	509	416	592	
6	0	0	0	0	509	407	578	
7	0	0	0	0	510	398	529	
8	0	0	0	0	510	388	529	
9	0	0	0	0	511	377	511	
10	0	0	0	0	512	366	476	
11	0	0	0	0	513	354	476	
12	0	0	0	0	516	342	467	
13	0	0	0	0	517	329	455	
14	0	0	0	0	519	319	476	
15	0	0	0	0	523	307	481	
0	0	0	0	0	524	298	477	
1	0	0	0	0	525	289	511	
2	0	0	0	0	527	281	495	
3	0	0	0	0	529	276	511	
4	0	0	0	0	530	272	498	
5	0	0	0	0	532	270	494	
6	0	0	0	0	534	269	490	
7	0	0	0	0	537	269	505	
8	0	0	0	0	539	270	512	
9	0	0	0	0	539	270	494	
10	0	0	0	0	540	269	493	
11	0	0	0	0	540	269	488	
12	0	0	0	0	539	271	481	
13	0	0	0	0	536	272	486	
14	0	0	0	0	536	272	479	
15	0	0	0	0	532	274	479	
0	0	0	0	0	529	277	480	
1	0	0	0	0	527	281	476	
2	0	0	0	0	526	287	518	
3	0	0	0	0	524	293	515	
4	0	0	0	0	523	300	540	
5	0	0	0	0	523	305	531	
6	0	0	0	0	523	312	512	
7	0	0	0	0	525	317	466	
8	0	0	0	0	525	321	429	
9	0	0	0	0	524	326	415	
10	0	0	0	0	521	330	417	
11	0	0	0	0	522	335	418	
12	0	0	0	0	521	339	382	
13	0	0	0	0	520	344	466	
14	0	0	0	0	518	349	713	
15	0	0	0	0	515	355	984	
0	0	0	0	0	514	360	939	
1	0	0	0	0	513	364	574	
2	0	0	0	0	512	369	367	
3	0	0	0	0	512	374	289	
4	0	0	0	0	512	380	311	
5	0	0	0	0	512	386	345	
6	0	0	0	0	511	390	363	
7	0	0	0	0	511	391	398	
8	0	0	0	0	511	393	417	
9	0	0	0	0	512	393	443	
10	0	0	0	0	512	393	466	
11	0	0	0	0	512	393	473	
12	0	0	0	0	512	391	498	
13	0	0	0	0	512	388	505	
14	0	0	0	0	513	384	521	
15	0	0	0	0	513	380	518	
0	0	0	0	0	511	375	545	
1	0	0	0	0	507	368	555	
2	0	0	0	0	506	362	573	
3	0	0	0	0	506	356	590	
4	0	0	0	0	506	351	589	
5	0	0	0	0	508	348	582	
6	0	0	0	0	510	344	575	
7	0	0	0	0	512	342	545	
8	0	0	0	0	515	339	504	
9	0	0	0	0	515	335	469	
10	0	0	0	0	517	331	442	
11	0	0	0	0	518	327	423	
12	0	0	0	0	520	323	419	
13	0	0	0	0	520	320	414	
14	0	0	0	0	521	315	436	
15	0	0	0	0	523	312	439	
0	0	0	0	0	524	309	431	
1	0	0	0	0	526	306	429	
2	0	0	0	0	526	304	443	
3	0	0	0	0	527	302	445	
4	0	0	0	0	527	302	451	
5	0	0	0	0	528	301	469	
6	0	0	0	0	529	302	476	
7	0	0	0	0	529	301	482	
8	0	0	0	0	531	302	493	
9	0	0	0	0	531	303	502	
10	0	0	0	0	529	303	501	
11	0	0	0	0	527	303	497	
12	0	0	0	0	524	304	496	
13	0	0	0	0	524	306	486	
14	0	0	0	0	522	308	504	
15	0	0	0	0	518	311	519	
0	0	0	0	0	518	313	508	
1	0	0	0	0	517	315	510	
2	0	0	0	0	518	319	521	
3	0	0	0	0	521	320	511	
4	0	0	0	0	524	322	532	
5	0	0	0	0	525	322	563	
6	0	0	0	0	524	323	547	
7	0	0	0	0	523	324	518	
8	0	0	0	0	521	327	513	
9	0	0	0	0	521	329	499	
10	0	0	0	0	524	332	490	
11	0	0	0	0	523	336	505	
12	0	0	0	0	524	340	497	
13	0	0	0	0	523	344	481	
14	0	0	0	0	521	350	611	
15	0	0	0	0	523	358	918	
0	0	0	0	0	522	368	1022	
1	0	0	0	0	520	378	830	
2	0	0	0	0	516	387	543	
3	0	0	0	0	515	395	384	
4	0	0	0	0	514	400	350	
5	0	0	0	0	512	405	410	
6	0	0	0	0	512	408	341	
7	0	0	0	0	511	411	384	
8	0	0	0	0	510	417	407	
9	0	0	0	0	509	422	425	
10	0	0	0	0	507	428	424	
11	0	0	0	0	507	432	455	
12	0	0	0	0	505	430	456	
13	0	0	0	0	504	423	470	
14	0	0	0	0	503	411	477	
15	0	0	0	0	502	397	497	
0	0	0	0	0	500	383	509	
1	0	0	0	0	500	370	535	
2	0	0	0	0	499	360	554	
3	0	0	0	0	497	353	568	
4	0	0	0	0	497	350	559	
5	0	0	0	0	497	350	545	
6	0	0	0	0	499	350	560	
7	0	0	0	0	500	352	529	
8	0	0	0	0	502	354	506	
9	0	0	0	0	501	356	508	
10	0	0	0	0	501	359	486	
11	0	0	0	0	504	363	474	
12	0	0	0	0	506	366	469	
13	0	0	0	0	509	371	466	
14	0	0	0	0	511	375	470	
15	0	0	0	0	511	379	451	
0	0	0	0	0	515	383	457	
1	0	0	0	0	519	387	457	
2	0	0	0	0	521	391	468	
3	0	0	0	0	523	397	483	
4	0	0	0	0	525	403	495	
5	0	0	0	0	526	410	516	
6	0	0	0	0	528	418	513	
7	0	0	0	0	530	428	540	
8	0	0	0	0	531	437	547	
9	0	0	0	0	531	446	560	
10	0	0	0	0	529	454	539	
11	0	0	0	0	527	462	527	
12	0	0	0	0	527	470	533	
13	0	0	0	0	527	477	537	
14	0	0	0	0	527	485	542	
15	0	0	0	0	528	493	533	
0	0	0	0	0	529	502	541	
1	0	0	0	0	529	511	537	
2	0	0	0	0	528	519	536	
3	0	0	0	0	527	526	555	
4	0	0	0	0	526	532	572	
5	0	0	0	0	524	536	571	
6	0	0	0	0	521	540	553	
7	0	0	0	0	519	543	508	
8	0	0	0	0	519	545	504	
9	0	0	0	0	518	547	489	
10	0	0	0	0	516	546	483	
11	0	0	0	0	518	545	467	
12	0	0	0	0	519	542	457	
13	0	0	0	0	521	539	573	
14	0	0	0	0	523	536	866	
15	0	0	0	0	522	533	989	
0	0	0	0	0	523	529	741	
1	0	0	0	0	524	524	514	
2	0	0	0	0	523	516	371	
3	0	0	0	0	521	511	330	
4	0	0	0	0	520	505	361	
5	0	0	0	0	517	501	355	
6	0	0	0	0	511	501	400	
7	0	0	0	0	508	501	403	
8	0	0	0	0	508	502	433	
9	0	0	0	0	509	503	431	
10	0	0	0	0	507	503	446	
11	0	0	0	0	507	502	459	
12	0	0	0	0	507	496	448	
13	0	0	0	0	505	489	474	
14	0	0	0	0	503	482	501	
15	0	0	0	0	502	475	514	
0	0	0	0	0	503	469	526	
1	0	0	0	0	504	464	541	
2	0	0	0	0	503	460	561	
3	0	0	0	0	503	458	566	
4	0	0	0	0	504	457	572	
5	0	0	0	0	504	457	574	
6	0	0	0	0	503	455	562	
7	0	0	0	0	502	454	542	
8	0	0	0	0	503	453	503	
9	0	0	0	0	505	452	473	
10	0	0	0	0	505	452	455	
11	0	0	0	0	505	453	457	
12	0	0	0	0	506	455	442	
13	0	0	0	0	508	459	421	
14	0	0	0	0	510	461	455	
15	0	0	0	0	513	464	470	
0	0	0	0	0	517	468	481	
1	0	0	0	0	516	473	478	
2	0	0	0	0	518	480	503	
3	0	0	0	0	517	486	523	
4	0	0	0	0	518	494	508	
5	0	0	0	0	518	503	518	
6	0	0	0	0	516	511	516	
7	0	0	0	0	514	520	508	
8	0	0	0	0	514	529	484	
9	0	0	0	0	514	538	488	
10	0	0	0	0	513	547	488	
11	0	0	0	0	512	556	483	
12	0	0	0	0	512	565	471	
13	0	0	0	0	511	574	483	
14	0	0	0	0	509	583	483	
15	0	0	0	0	509	593	504	
0	0	0	0	0	509	603	512	
1	0	0	0	0	508	613	531	
2	0	0	0	0	506	623	557	
3	0	0	0	0	504	633	571	
4	0	0	0	0	502	643	542	
5	0	0	0	0	502	654	511	
6	0	0	0	0	501	664	488	
7	0	0	0	0	501	672	477	
8	0	0	0	0	501	681	474	
9	0	0	0	0	500	687	471	
10	0	0	0	0	499	694	446	
11	0	0	0	0	498	700	523	
12	0	0	0	0	498	706	760	
13	0	0	0	0	497	714	1003	
14	0	0	0	0	496	721	887	
15	0	0	0	0	499	729	632	
0	0	0	0	0	500	736	444	
1	0	0	0	0	501	743	365	
2	0	0	0	0	502	751	378	
3	0	0	0	0	503	758	394	
4	0	0	0	0	507	766	405	
5	0	0	0	0	508	774	420	
6	0	0	0	0	510	781	440	
7	0	0	0	0	510	790	460	
8	0	0	0	0	510	798	457	
9	0	0	0	0	509	805	460	
10	0	0	0	0	505	810	474	
11	0	0	0	0	505	812	477	
12	0	0	0	0	504	812	512	
13	0	0	0	0	502	812	523	
14	0	0	0	0	500	812	536	
15	0	0	0	0	500	813	538	
0	0	0	0	0	500	814	571	
1	0	0	0	0	499	815	575	
2	0	0	0	0	498	817	571	
3	0	0	0	0	497	820	570	
4	0	0	0	0	497	823	566	
5	0	0	0	0	496	824	520	
6	0	0	0	0	497	826	516	
7	0	0	0	0	500	827	494	
8	0	0	0	0	504	828	452	
9	0	0	0	0	505	830	457	
10	0	0	0	0	508	830	469	
11	0	0	0	0	509	830	460	
12	0	0	0	0	510	829	468	
13	0	0	0	0	511	827	468	
14	0	0	0	0	512	824	473	
15	0	0	0	0	513	819	489	
0	0	0	0	0	514	815	496	
1	0	0	0	0	515	812	491	
2	0	0	0	0	514	811	499	
3	0	0	0	0	514	812	500	
4	0	0	0	0	514	814	509	
5	0	0	0	0	515	816	490	
6	0	0	0	0	516	820	487	
7	0	0	0	0	515	822	489	
8	0	0	0	0	514	824	486	
9	0	0	0	0	512	825	475	
10	0	0	0	0	511	826	473	
11	0	0	0	0	509	826	503	
12	0	0	0	0	509	826	504	
13	0	0	0	0	508	825	505	
14	0	0	0	0	509	824	518	
15	0	0	0	0	508	821	527	
0	0	0	0	0	507	818	540	
1	0	0	0	0	505	814	558	
2	0	0	0	0	504	807	563	
3	0	0	0	0	502	798	556	
4	0	0	0	0	500	787	570	
5	0	0	0	0	499	773	552	
6	0	0	0	0	496	758	543	
7	0	0	0	0	495	741	490	
8	0	0	0	0	494	724	492	
9	0	0	0	0	493	710	507	
10	0	0	0	0	495	696	479	
11	0	0	0	0	496	686	469	
12	0	0	0	0	496	677	563	
13	0	0	0	0	501	668	868	
14	0	0	0	0	503	659	1022	
15	0	0	0	0	502	652	906	
0	0	0	0	0	499	643	541	
1	0	0	0	0	497	635	348	
2	0	0	0	0	496	627	350	
3	0	0	0	0	494	621	353	
4	0	0	0	0	493	615	366	
5	0	0	0	0	493	606	364	
6	0	0	0	0	491	598	378	
7	0	0	0	0	492	588	399	
8	0	0	0	0	494	580	451	
9	0	0	0	0	494	572	465	
10	0	0	0	0	493	563	487	
11	0	0	0	0	492	553	423	
12	0	0	0	0	490	541	466	
13	0	0	0	0	490	528	493	
14	0	0	0	0	489	514	486	
15	0	0	0	0	490	499	526	
0	0	0	0	0	490	484	499	
1	0	0	0	0	492	470	506	
2	0	0	0	0	492	456	535	
3	0	0	0	0	494	444	522	
4	0	0	0	0	495	433	540	
5	0	0	0	0	494	424	527	
6	0	0	0	0	496	416	509	
7	0	0	0	0	497	407	484	
8	0	0	0	0	499	399	438	
9	0	0	0	0	500	391	428	
10	0	0	0	0	504	383	438	
11	0	0	0	0	508	376	467	
12	0	0	0	0	510	369	487	
13	0	0	0	0	509	363	456	
14	0	0	0	0	510	357	470	
15	0	0	0	0	511	352	476	
0	0	0	0	0	513	350	510	
1	0	0	0	0	514	348	496	
2	0	0	0	0	513	348	518	
3	0	0	0	0	513	348	504	
4	0	0	0	0	513	351	543	
5	0	0	0	0	513	353	519	
6	0	0	0	0	513	356	535	
7	0	0	0	0	512	359	530	
8	0	0	0	0	510	360	527	
9	0	0	0	0	510	362	528	
10	0	0	0	0	508	363	518	
11	0	0	0	0	509	362	516	
12	0	0	0	0	507	362	490	
13	0	0	0	0	507	362	508	
14	0	0	0	0	505	362	512	
15	0	0	0	0	506	362	528	
0	0	0	0	0	507	363	497	
1	0	0	0	0	507	364	515	
2	0	0	0	0	505	366	512	
3	0	0	0	0	503	368	518	
4	0	0	0	0	504	369	508	
5	0	0	0	0	502	371	527	
6	0	0	0	0	501	372	552	
7	0	0	0	0	503	372	542	
8	0	0	0	0	503	373	532	
9	0	0	0	0	502	372	504	
10	0	0	0	0	502	371	495	
11	0	0	0	0	501	368	464	
12	0	0	0	0	502	366	463	
13	0	0	0	0	503	361	461	
14	0	0	0	0	501	356	461	
15	0	0	0	0	502	350	626	
0	0	0	0	0	503	343	940	
1	0	0	0	0	501	335	1022	
2	0	0	0	0	499	327	787	
3	0	0	0	0	499	316	468	
4	0	0	0	0	500	306	339	
5	0	0	0	0	500	296	316	
6	0	0	0	0	500	288	327	
7	0	0	0	0	502	280	378	
8	0	0	0	0	503	273	375	
9	0	0	0	0	503	266	400	
10	0	0	0	0	501	262	370	
11	0	0	0	0	501	260	403	
12	0	0	0	0	502	259	435	
13	0	0	0	0	504	257	442	
14	0	0	0	0	503	253	453	
15	0	0	0	0	504	247	502	
0	0	0	0	0	504	241	484	
1	0	0	0	0	504	236	503	
2	0	0	0	0	504	230	530	
3	0	0	0	0	502	225	507	
4	0	0	0	0	503	221	544	
5	0	0	0	0	502	217	551	
6	0	0	0	0	501	216	562	
7	0	0	0	0	499	215	568	
8	0	0	0	0	496	213	552	
9	0	0	0	0	494	212	542	
10	0	0	0	0	492	210	531	
11	0	0	0	0	492	208	520	
12	0	0	0	0	492	205	514	
13	0	0	0	0	495	203	508	
14	0	0	0	0	497	200	512	
15	0	0	0	0	501	200	504	
0	0	0	0	0	504	200	510	
1	0	0	0	0	508	201	489	
2	0	0	0	0	510	204	471	
3	0	0	0	0	511	207	510	
4	0	0	0	0	512	211	483	
5	0	0	0	0	514	216	489	
6	0	0	0	0	515	222	485	
7	0	0	0	0	515	228	474	
8	0	0	0	0	513	233	484	
9	0	0	0	0	510	238	489	
10	0	0	0	0	508	241	509	
11	0	0	0	0	509	244	510	
12	0	0	0	0	510	247	491	
13	0	0	0	0	511	250	519	
14	0	0	0	0	510	254	490	
15	0	0	0	0	510	257	507	
0	0	0	0	0	510	261	517	
1	0	0	0	0	511	265	532	
2	0	0	0	0	510	270	552	
3	0	0	0	0	507	275	543	
4	0	0	0	0	507	281	544	
5	0	0	0	0	507	287	550	
6	0	0	0	0	505	293	538	
7	0	0	0	0	507	300	552	
8	0	0	0	0	503	305	548	
9	0	0	0	0	500	312	587	
10	0	0	0	0	498	316	551	
11	0	0	0	0	498	321	502	
12	0	0	0	0	498	325	494	
13	0	0	0	0	498	329	494	
14	0	0	0	0	500	333	487	
15	0	0	0	0	502	335	506	
0	0	0	0	0	502	337	450	
1	0	0	0	0	501	338	547	
2	0	0	0	0	500	339	794	
3	0	0	0	0	499	339	991	
4	0	0	0	0	497	339	867	
5	0	0	0	0	495	337	614	
6	0	0	0	0	494	335	407	
7	0	0	0	0	494	331	317	
8	0	0	0	0	494	327	374	
9	0	0	0	0	495	326	374	
10	0	0	0	0	494	326	376	
11	0	0	0	0	496	329	395	
12	0	0	0	0	497	332	421	
13	0	0	0	0	496	336	429	
14	0	0	0	0	495	341	449	
15	0	0	0	0	494	342	459	
0	0	0	0	0	493	340	461	
1	0	0	0	0	495	334	478	
2	0	0	0	0	495	326	521	
3	0	0	0	0	495	318	493	
4	0	0	0	0	494	309	518	
5	0	0	0	0	494	303	524	
6	0	0	0	0	493	299	522	
7	0	0	0	0	492	296	543	
8	0	0	0	0	493	296	587	
9	0	0	0	0	493	297	511	
10	0	0	0	0	492	300	539	
11	0	0	0	0	494	303	531	
12	0	0	0	0	496	306	506	
13	0	0	0	0	497	308	481	
14	0	0	0	0	499	310	463	
15	0	0	0	0	502	313	471	
0	0	0	0	0	504	315	470	
1	0	0	0	0	504	318	467	
2	0	0	0	0	507	321	470	
3	0	0	0	0	511	324	461	
4	0	0	0	0	512	327	466	
5	0	0	0	0	512	333	479	
6	0	0	0	0	513	338	504	
7	0	0	0	0	512	344	507	
8	0	0	0	0	512	350	528	
9	0	0	0	0	511	356	495	
10	0	0	0	0	510	362	495	
11	0	0	0	0	510	367	508	
12	0	0	0	0	510	373	516	
13	0	0	0	0	508	378	491	
14	0	0	0	0	508	383	513	
15	0	0	0	0	508	387	497	
0	0	0	0	0	507	391	513	
1	0	0	0	0	507	394	497	
2	0	0	0	0	506	397	504	
3	0	0	0	0	506	400	501	
4	0	0	0	0	505	402	520	
5	0	0	0	0	504	405	511	
6	0	0	0	0	503	407	514	
7	0	0	0	0	503	411	513	
8	0	0	0	0	502	415	524	
9	0	0	0	0	503	420	550	
10	0	0	0	0	505	425	563	
11	0	0	0	0	505	430	544	
12	0	0	0	0	507	436	509	
13	0	0	0	0	510	442	504	
14	0	0	0	0	510	448	493	
15	0	0	0	0	513	453	495	
0	0	0	0	0	515	458	510	
1	0	0	0	0	516	461	482	
2	0	0	0	0	516	465	596	
3	0	0	0	0	516	469	825	
4	0	0	0	0	516	473	967	
5	0	0	0	0	516	477	806	
6	0	0	0	0	516	479	570	
7	0	0	0	0	515	480	402	
8	0	0	0	0	515	480	357	
9	0	0	0	0	514	483	347	
10	0	0	0	0	513	487	352	
11	0	0	0	0	513	493	380	
12	0	0	0	0	512	500	413	
13	0	0	0	0	512	508	427	
14	0	0	0	0	510	515	417	
15	0	0	0	0	509	522	430	
0	0	0	0	0	510	527	444	
1	0	0	0	0	510	529	479	
2	0	0	0	0	508	529	433	
3	0	0	0	0	508	527	502	
4	0	0	0	0	507	526	480	
5	0	0	0	0	507	524	499	
6	0	0	0	0	506	523	527	
7	0	0	0	0	505	522	541	
8	0	0	0	0	504	524	559	
9	0	0	0	0	504	526	580	
10	0	0	0	0	504	528	561	
11	0	0	0	0	504	531	542	
12	0	0	0	0	504	533	540	
13	0	0	0	0	503	534	510	
14	0	0	0	0	502	534	484	
15	0	0	0	0	503	535	478	
0	0	0	0	0	505	535	460	
1	0	0	0	0	506	534	464	
2	0	0	0	0	508	533	469	
3	0	0	0	0	507	532	473	
4	0	0	0	0	508	531	495	
5	0	0	0	0	509	531	469	
6	0	0	0	0	511	531	481	
7	0	0	0	0	512	533	476	
8	0	0	0	0	512	535	522	
9	0	0	0	0	512	538	509	
10	0	0	0	0	511	542	512	
11	0	0	0	0	513	547	525	
12	0	0	0	0	515	551	511	
13	0	0	0	0	516	556	497	
14	0	0	0	0	516	561	507	
15	0	0	0	0	517	567	504	
0	0	0	0	0	518	571	527	
1	0	0	0	0	518	574	527	
2	0	0	0	0	516	576	519	
3	0	0	0	0	516	578	507	
4	0	0	0	0	513	580	501	
5	0	0	0	0	512	582	503	
6	0	0	0	0	509	584	504	
7	0	0	0	0	507	588	510	
8	0	0	0	0	505	591	508	
9	0	0	0	0	504	594	484	
10	0	0	0	0	503	595	538	
11	0	0	0	0	501	593	559	
12	0	0	0	0	500	590	552	
13	0	0	0	0	497	584	527	
14	0	0	0	0	497	578	523	
15	0	0	0	0	496	572	502	
0	0	0	0	0	494	564	495	
1	0	0	0	0	495	558	487	
2	0	0	0	0	496	550	469	
3	0	0	0	0	495	542	463	
4	0	0	0	0	494	534	586	
5	0	0	0	0	494	527	849	
6	0	0	0	0	493	519	1011	
7	0	0	0	0	493	513	831	
8	0	0	0	0	491	508	551	
9	0	0	0	0	490	502	362	
10	0	0	0	0	488	496	332	
11	0	0	0	0	487	492	347	
12	0	0	0	0	485	487	356	
13	0	0	0	0	486	483	383	
14	0	0	0	0	487	478	412	
15	0	0	0	0	488	473	437	
0	0	0	0	0	489	469	444	
1	0	0	0	0	492	465	483	
2	0	0	0	0	493	459	498	
3	0	0	0	0	494	452	501	
4	0	0	0	0	494	443	508	
5	0	0	0	0	495	433	523	
6	0	0	0	0	495	422	529	
7	0	0	0	0	497	411	527	
8	0	0	0	0	496	399	554	
9	0	0	0	0	496	387	582	
10	0	0	0	0	493	375	580	
11	0	0	0	0	492	363	601	
12	0	0	0	0	492	352	592	
13	0	0	0	0	492	341	597	
14	0	0	0	0	493	331	552	
15	0	0	0	0	492	320	535	
0	0	0	0	0	489	310	507	
1	0	0	0	0	489	298	461	
2	0	0	0	0	491	287	461	
3	0	0	0	0	492	276	460	
4	0	0	0	0	494	267	444	
5	0	0	0	0	495	257	440	
6	0	0	0	0	497	248	457	
7	0	0	0	0	500	237	459	
8	0	0	0	0	503	229	480	
9	0	0	0	0	505	221	491	
10	0	0	0	0	505	214	508	
11	0	0	0	0	507	210	521	
12	0	0	0	0	506	206	486	
13	0	0	0	0	507	203	494	
14	0	0	0	0	504	203	477	
15	0	0	0	0	503	202	508	
0	0	0	0	0	502	202	509	
1	0	0	0	0	502	202	518	
2	0	0	0	0	501	201	516	
3	0	0	0	0	502	200	502	
4	0	0	0	0	502	198	518	
5	0	0	0	0	501	198	502	
6	0	0	0	0	499	197	492	
7	0	0	0	0	497	198	521	
8	0	0	0	0	499	199	511	
9	0	0	0	0	500	201	508	
10	0	0	0	0	501	203	540	
11	0	0	0	0	503	205	519	
12	0	0	0	0	506	207	510	
13	0	0	0	0	509	209	534	
14	0	0	0	0	510	212	553	
15	0	0	0	0	512	215	523	
0	0	0	0	0	513	218	494	
1	0	0	0	0	513	222	491	
2	0	0	0	0	512	226	484	
3	0	0	0	0	511	231	463	
4	0	0	0	0	512	233	483	
5	0	0	0	0	511	236	468	
6	0	0	0	0	509	240	469	
7	0	0	0	0	508	242	646	
8	0	0	0	0	508	244	968	
9	0	0	0	0	508	247	1022	
10	0	0	0	0	506	250	744	
11	0	0	0	0	505	251	456	
12	0	0	0	0	504	254	337	
13	0	0	0	0	503	257	334	
14	0	0	0	0	503	261	361	
15	0	0	0	0	504	263	359	
0	0	0	0	0	504	265	372	
1	0	0	0	0	504	264	395	
2	0	0	0	0	502	264	425	
3	0	0	0	0	504	265	449	
4	0	0	0	0	506	265	482	
5	0	0	0	0	508	265	479	
6	0	0	0	0	507	263	474	
7	0	0	0	0	507	262	495	
8	0	0	0	0	507	258	495	
9	0	0	0	0	507	255	518	
10	0	0	0	0	506	251	535	
11	0	0	0	0	508	249	540	
12	0	0	0	0	506	246	565	
13	0	0	0	0	506	246	562	
14	0	0	0	0	506	248	551	
15	0	0	0	0	504	248	569	
0	0	0	0	0	502	251	557	
1	0	0	0	0	500	254	541	
2	0	0	0	0	499	255	511	
3	0	0	0	0	499	258	495	
4	0	0	0	0	500	258	476	
5	0	0	0	0	502	258	469	
6	0	0	0	0	503	259	478	
7	0	0	0	0	502	260	483	
8	0	0	0	0	501	262	468	
9	0	0	0	0	502	264	467	
10	0	0	0	0	504	267	489	
11	0	0	0	0	505	272	493	
12	0	0	0	0	504	277	494	
13	0	0	0	0	503	283	510	
14	0	0	0	0	500	289	506	
15	0	0	0	0	500	295	497	
0	0	0	0	0	500	301	508	
1	0	0	0	0	500	306	515	
2	0	0	0	0	503	311	514	
3	0	0	0	0	503	315	518	
4	0	0	0	0	504	318	517	
5	0	0	0	0	503	319	512	
6	0	0	0	0	503	321	515	
7	0	0	0	0	502	321	510	
8	0	0	0	0	503	320	510	
9	0	0	0	0	504	318	517	
10	0	0	0	0	505	317	512	
11	0	0	0	0	505	315	502	
12	0	0	0	0	507	313	503	
13	0	0	0	0	507	311	516	
14	0	0	0	0	508	308	513	
15	0	0	0	0	507	305	541	
0	0	0	0	0	507	301	533	
1	0	0	0	0	508	297	552	
2	0	0	0	0	507	292	547	
3	0	0	0	0	505	287	540	
4	0	0	0	0	505	283	509	
5	0	0	0	0	506	279	480	
6	0	0	0	0	507	276	469	
7	0	0	0	0	508	273	467	
8	0	0	0	0	509	270	439	
9	0	0	0	0	508	269	448	
10	0	0	0	0	508	270	618	
11	0	0	0	0	506	269	931	
12	0	0	0	0	502	267	1009	
13	0	0	0	0	496	264	696	
14	0	0	0	0	492	258	438	
15	0	0	0	0	489	251	313	
0	0	0	0	0	487	243	338	
1	0	0	0	0	487	236	337	
2	0	0	0	0	486	227	364	
3	0	0	0	0	485	216	380	
4	0	0	0	0	486	207	422	
5	0	0	0	0	486	202	435	
6	0	0	0	0	488	199	448	
7	0	0	0	0	492	199	455	
8	0	0	0	0	495	199	456	
9	0	0	0	0	498	198	451	
10	0	0	0	0	500	195	482	
11	0	0	0	0	500	189	504	
12	0	0	0	0	498	184	549	
13	0	0	0	0	499	178	561	
14	0	0	0	0	499	172	614	
15	0	0	0	0	498	167	623	
0	0	0	0	0	495	163	627	
1	0	0	0	0	495	160	608	
2	0	0	0	0	495	159	567	
3	0	0	0	0	495	157	532	
4	0	0	0	0	496	158	499	
5	0	0	0	0	497	158	457	
6	0	0	0	0	499	158	443	
7	0	0	0	0	500	157	439	
8	0	0	0	0	499	159	442	
9	0	0	0	0	500	162	430	
10	0	0	0	0	501	163	456	
11	0	0	0	0	503	166	473	
12	0	0	0	0	503	167	477	
13	0	0	0	0	506	171	463	
14	0	0	0	0	507	175	474	
15	0	0	0	0	507	178	465	
0	0	0	0	0	508	184	474	
1	0	0	0	0	509	188	476	
2	0	0	0	0	509	190	483	
3	0	0	0	0	510	192	515	
4	0	0	0	0	510	192	517	
5	0	0	0	0	511	190	507	
6	0	0	0	0	510	186	534	
7	0	0	0	0	510	182	532	
8	0	0	0	0	510	177	517	
9	0	0	0	0	508	174	493	
10	0	0	0	0	505	172	477	
11	0	0	0	0	505	169	489	
12	0	0	0	0	505	169	473	
13	0	0	0	0	503	170	490	
14	0	0	0	0	502	171	497	
15	0	0	0	0	501	175	510	
0	0	0	0	0	500	176	525	
1	0	0	0	0	501	179	543	
2	0	0	0	0	500	182	557	
3	0	0	0	0	499	187	593	
4	0	0	0	0	498	193	569	
5	0	0	0	0	499	199	529	
6	0	0	0	0	499	207	495	
7	0	0	0	0	499	214	474	
8	0	0	0	0	501	220	476	
9	0	0	0	0	503	225	467	
10	0	0	0	0	505	230	455	
11	0	0	0	0	507	235	475	
12	0	0	0	0	509	240	682	
13	0	0	0	0	509	245	957	
14	0	0	0	0	510	251	952	
15	0	0	0	0	508	256	693	
0	0	0	0	0	505	263	460	
1	0	0	0	0	502	268	357	
2	0	0	0	0	501	275	355	
3	0	0	0	0	499	284	364	
4	0	0	0	0	498	294	375	
5	0	0	0	0	497	306	390	
6	0	0	0	0	496	319	404	
7	0	0	0	0	495	331	428	
8	0	0	0	0	495	343	443	
9	0	0	0	0	495	356	472	
10	0	0	0	0	495	366	483	
11	0	0	0	0	494	374	494	
12	0	0	0	0	494	377	502	
13	0	0	0	0	493	378	512	
14	0	0	0	0	494	377	525	
15	0	0	0	0	495	377	544	
0	0	0	0	0	494	379	548	
1	0	0	0	0	495	384	554	
2	0	0	0	0	496	390	579	
3	0	0	0	0	498	397	580	
4	0	0	0	0	497	404	574	
5	0	0	0	0	498	410	564	
6	0	0	0	0	501	416	534	
7	0	0	0	0	502	420	507	
8	0	0	0	0	502	424	494	
9	0	0	0	0	504	425	474	
10	0	0	0	0	505	423	473	
11	0	0	0	0	508	417	466	
12	0	0	0	0	508	408	452	
13	0	0	0	0	510	396	472	
14	0	0	0	0	513	384	478	
15	0	0	0	0	514	374	473	
0	0	0	0	0	515	363	460	
1	0	0	0	0	516	355	480	
2	0	0	0	0	516	348	469	
3	0	0	0	0	517	340	486	
4	0	0	0	0	516	335	483	
5	0	0	0	0	516	329	482	
6	0	0	0	0	515	326	472	
7	0	0	0	0	512	324	472	
8	0	0	0	0	512	323	471	
9	0	0	0	0	508	320	467	
10	0	0	0	0	504	319	466	
11	0	0	0	0	500	318	477	
12	0	0	0	0	499	318	491	
13	0	0	0	0	497	319	504	
14	0	0	0	0	496	320	517	
15	0	0	0	0	497	322	519	
0	0	0	0	0	499	324	542	
1	0	0	0	0	499	325	540	
2	0	0	0	0	498	328	566	
3	0	0	0	0	498	329	574	
4	0	0	0	0	498	332	566	
5	0	0	0	0	499	334	551	
6	0	0	0	0	502	336	521	
7	0	0	0	0	502	337	496	
8	0	0	0	0	502	338	499	
9	0	0	0	0	503	338	499	
10	0	0	0	0	504	336	494	
11	0	0	0	0	505	334	472	
12	0	0	0	0	505	333	597	
13	0	0	0	0	506	332	854	
14	0	0	0	0	506	330	993	
15	0	0	0	0	507	327	792	
0	0	0	0	0	505	324	546	
1	0	0	0	0	507	319	397	
2	0	0	0	0	504	314	360	
3	0	0	0	0	504	312	358	
4	0	0	0	0	503	311	379	
5	0	0	0	0	504	316	400	
6	0	0	0	0	504	322	406	
7	0	0	0	0	503	329	430	
8	0	0	0	0	501	337	434	
9	0	0	0	0	500	345	463	
10	0	0	0	0	500	353	475	
11	0	0	0	0	498	357	480	
12	0	0	0	0	498	360	487	
13	0	0	0	0	499	363	511	
14	0	0	0	0	499	366	531	
15	0	0	0	0	498	368	520	
0	0	0	0	0	497	371	538	
1	0	0	0	0	496	375	566	
2	0	0	0	0	495	381	563	
3	0	0	0	0	497	386	553	
4	0	0	0	0	499	391	548	
5	0	0	0	0	500	396	542	
6	0	0	0	0	502	400	522	
7	0	0	0	0	504	404	519	
8	0	0	0	0	502	407	502	
9	0	0	0	0	502	411	484	
10	0	0	0	0	506	414	472	
11	0	0	0	0	509	416	485	
12	0	0	0	0	513	417	479	
13	0	0	0	0	515	417	466	
14	0	0	0	0	516	415	482	
15	0	0	0	0	517	413	496	
0	0	0	0	0	518	412	499	
1	0	0	0	0	518	412	496	
2	0	0	0	0	519	413	500	
3	0	0	0	0	516	414	527	
4	0	0	0	0	515	418	525	
5	0	0	0	0	515	423	529	
6	0	0	0	0	513	428	519	
7	0	0	0	0	513	434	513	
8	0	0	0	0	514	439	507	
9	0	0	0	0	512	444	496	
10	0	0	0	0	512	449	493	
11	0	0	0	0	509	454	496	
12	0	0	0	0	505	459	487	
13	0	0	0	0	502	465	478	
14	0	0	0	0	502	473	484	
15	0	0	0	0	504	481	499	
0	0	0	0	0	505	489	510	
1	0	0	0	0	506	497	516	
2	0	0	0	0	507	507	534	
3	0	0	0	0	508	515	558	
4	0	0	0	0	508	525	556	
5	0	0	0	0	508	535	528	
6	0	0	0	0	509	544	507	
7	0	0	0	0	507	553	475	
8	0	0	0	0	506	562	481	
9	0	0	0	0	505	570	491	
10	0	0	0	0	504	577	476	
11	0	0	0	0	503	585	485	
12	0	0	0	0	504	592	602	
13	0	0	0	0	505	601	876	
14	0	0	0	0	503	610	1022	
15	0	0	0	0	501	619	816	
0	0	0	0	0	502	628	556	
1	0	0	0	0	501	635	393	
2	0	0	0	0	502	642	353	
3	0	0	0	0	502	649	352	
4	0	0	0	0	503	657	366	
5	0	0	0	0	503	665	377	
6	0	0	0	0	505	675	407	
7	0	0	0	0	505	685	432	
8	0	0	0	0	504	697	438	
9	0	0	0	0	504	710	440	
10	0	0	0	0	504	721	470	
11	0	0	0	0	504	729	488	
12	0	0	0	0	503	735	497	
13	0	0	0	0	503	739	501	
14	0	0	0	0	503	743	511	
15	0	0	0	0	504	746	519	
0	0	0	0	0	504	748	536	
1	0	0	0	0	504	752	559	
2	0	0	0	0	504	757	559	
3	0	0	0	0	504	763	557	
4	0	0	0	0	502	770	556	
5	0	0	0	0	502	778	533	
6	0	0	0	0	501	786	526	
7	0	0	0	0	501	795	501	
8	0	0	0	0	499	801	479	
9	0	0	0	0	500	808	473	
10	0	0	0	0	501	813	473	
11	0	0	0	0	502	816	473	
12	0	0	0	0	506	818	467	
13	0	0	0	0	510	819	474	
14	0	0	0	0	508	819	474	
15	0	0	0	0	511	818	475	
0	0	0	0	0	513	817	489	
1	0	0	0	0	515	816	510	
2	0	0	0	0	515	816	510	
3	0	0	0	0	516	818	525	
4	0	0	0	0	517	823	516	
5	0	0	0	0	518	829	516	
6	0	0	0	0	515	835	523	
7	0	0	0	0	515	842	515	
8	0	0	0	0	515	849	529	
9	0	0	0	0	515	854	520	
10	0	0	0	0	514	857	531	
11	0	0	0	0	513	860	523	
12	0	0	0	0	514	860	531	
13	0	0	0	0	514	860	529	
14	0	0	0	0	516	859	532	
15	0	0	0	0	517	858	528	
0	0	0	0	0	515	855	532	
1	0	0	0	0	511	851	532	
2	0	0	0	0	510	846	516	
3	0	0	0	0	510	840	527	
4	0	0	0	0	512	833	551	
5	0	0	0	0	511	827	550	
6	0	0	0	0	513	820	534	
7	0	0	0	0	512	814	505	
8	0	0	0	0	512	808	495	
9	0	0	0	0	512	802	467	
10	0	0	0	0	511	796	478	
11	0	0	0	0	511	788	466	
12	0	0	0	0	511	780	451	
13	0	0	0	0	510	771	499	
14	0	0	0	0	510	762	694	
15	0	0	0	0	508	754	1009	
0	0	0	0	0	506	746	1021	
1	0	0	0	0	506	739	663	
2	0	0	0	0	505	730	436	
3	0	0	0	0	505	720	324	
4	0	0	0	0	505	713	341	
5	0	0	0	0	505	704	344	
6	0	0	0	0	504	696	357	
7	0	0	0	0	502	686	370	
8	0	0	0	0	500	676	386	
9	0	0	0	0	501	667	422	
10	0	0	0	0	502	660	425	
11	0	0	0	0	502	652	446	
12	0	0	0	0	501	644	454	
13	0	0	0	0	503	636	477	
14	0	0	0	0	503	626	484	
15	0	0	0	0	504	616	498	
0	0	0	0	0	505	605	512	
1	0	0	0	0	506	595	535	
2	0	0	0	0	504	584	539	
3	0	0	0	0	504	574	550	
4	0	0	0	0	503	564	568	
5	0	0	0	0	504	555	547	
6	0	0	0	0	505	547	516	
7	0	0	0	0	505	540	514	
8	0	0	0	0	507	534	465	
9	0	0	0	0	507	529	435	
10	0	0	0	0	508	524	424	
11	0	0	0	0	510	519	427	
12	0	0	0	0	513	513	412	
13	0	0	0	0	516	508	420	
14	0	0	0	0	519	504	426	
15	0	0	0	0	518	500	442	
0	0	0	0	0	518	496	455	
1	0	0	0	0	516	494	458	
2	0	0	0	0	517	492	466	
3	0	0	0	0	517	491	473	
4	0	0	0	0	520	492	471	
5	0	0	0	0	521	494	499	
6	0	0	0	0	521	497	504	
7	0	0	0	0	522	501	509	
8	0	0	0	0	523	505	498	
9	0	0	0	0	523	508	501	
10	0	0	0	0	524	511	503	
11	0	0	0	0	524	513	516	
12	0	0	0	0	524	513	511	
13	0	0	0	0	525	512	523	
14	0	0	0	0	525	508	517	
15	0	0	0	0	525	503	520	
0	0	0	0	0	523	496	524	
1	0	0	0	0	523	488	520	
2	0	0	0	0	521	480	521	
3	0	0	0	0	519	471	519	
4	0	0	0	0	517	462	542	
5	0	0	0	0	516	452	548	
6	0	0	0	0	515	441	546	
7	0	0	0	0	514	430	560	
8	0	0	0	0	515	420	583	
9	0	0	0	0	516	410	573	
10	0	0	0	0	517	400	543	
11	0	0	0	0	516	391	528	
12	0	0	0	0	515	383	504	
13	0	0	0	0	515	374	487	
14	0	0	0	0	516	366	492	
15	0	0	0	0	517	356	473	
0	0	0	0	0	518	347	468	
1	0	0	0	0	519	335	607	
2	0	0	0	0	520	323	898	
3	0	0	0	0	518	312	1022	
4	0	0	0	0	519	301	828	
5	0	0	0	0	517	291	523	
6	0	0	0	0	515	279	359	
7	0	0	0	0	513	268	341	
8	0	0	0	0	513	259	344	
9	0	0	0	0	510	249	354	
10	0	0	0	0	507	239	377	
11	0	0	0	0	504	233	405	
12	0	0	0	0	502	229	435	
13	0	0	0	0	500	226	434	
14	0	0	0	0	500	226	455	
15	0	0	0	0	502	226	497	
0	0	0	0	0	503	223	499	
1	0	0	0	0	504	219	517	
2	0	0	0	0	504	212	523	
3	0	0	0	0	504	205	526	
4	0	0	0	0	503	198	549	
5	0	0	0	0	502	191	569	
6	0	0	0	0	503	183	567	
7	0	0	0	0	503	179	592	
8	0	0	0	0	502	176	604	
9	0	0	0	0	503	176	589	
10	0	0	0	0	505	177	579	
11	0	0	0	0	505	177	555	
12	0	0	0	0	505	179	526	
13	0	0	0	0	508	178	484	
14	0	0	0	0	509	179	465	
15	0	0	0	0	508	176	443	
0	0	0	0	0	508	173	443	
1	0	0	0	0	511	170	440	
2	0	0	0	0	513	166	435	
3	0	0	0	0	515	163	448	
4	0	0	0	0	515	159	474	
5	0	0	0	0	516	159	487	
6	0	0	0	0	518	157	489	
7	0	0	0	0	518	158	497	
8	0	0	0	0	519	159	506	
9	0	0	0	0	520	162	509	
10	0	0	0	0	521	163	521	
11	0	0	0	0	522	164	521	
12	0	0	0	0	519	167	541	
13	0	0	0	0	520	167	527	
14	0	0	0	0	520	167	523	
15	0	0	0	0	521	167	524	
0	0	0	0	0	523	167	511	
1	0	0	0	0	524	167	527	
2	0	0	0	0	524	168	512	
3	0	0	0	0	524	171	519	
4	0	0	0	0	523	171	504	
5	0	0	0	0	523	175	502	
6	0	0	0	0	522	176	493	
7	0	0	0	0	520	176	483	
8	0	0	0	0	520	178	496	
9	0	0	0	0	520	178	471	
10	0	0	0	0	519	180	491	
11	0	0	0	0	518	181	504	
12	0	0	0	0	517	183	518	
13	0	0	0	0	516	185	506	
14	0	0	0	0	515	187	473	
15	0	0	0	0	512	191	466	
0	0	0	0	0	511	195	479	
1	0	0	0	0	509	198	476	
2	0	0	0	0	509	199	473	
3	0	0	0	0	509	200	439	
4	0	0	0	0	510	199	516	
5	0	0	0	0	508	200	771	
6	0	0	0	0	507	201	964	
7	0	0	0	0	505	206	862	
8	0	0	0	0	505	208	609	
9	0	0	0	0	507	210	437	
10	0	0	0	0	508	211	359	
11	0	0	0	0	507	213	383	
12	0	0	0	0	507	214	423	
13	0	0	0	0	508	219	419	
14	0	0	0	0	508	225	423	
15	0	0	0	0	507	232	431	
0	0	0	0	0	507	238	431	
1	0	0	0	0	507	244	421	
2	0	0	0	0	508	248	444	
3	0	0	0	0	508	250	478	
4	0	0	0	0	507	248	478	
5	0	0	0	0	507	244	488	
6	0	0	0	0	508	239	494	
7	0	0	0	0	507	233	517	
8	0	0	0	0	507	229	525	
9	0	0	0	0	508	225	522	
10	0	0	0	0	507	223	539	
11	0	0	0	0	507	223	544	
12	0	0	0	0	507	223	550	
13	0	0	0	0	507	223	531	
14	0	0	0	0	506	224	531	
15	0	0	0	0	508	223	475	
0	0	0	0	0	508	221	503	
1	0	0	0	0	510	219	468	
2	0	0	0	0	511	217	455	
3	0	0	0	0	514	215	447	
4	0	0	0	0	516	214	453	
5	0	0	0	0	516	211	447	
6	0	0	0	0	517	208	476	
7	0	0	0	0	518	205	489	
8	0	0	0	0	517	202	494	
9	0	0	0	0	517	200	485	
10	0	0	0	0	517	200	507	
11	0	0	0	0	517	201	503	
12	0	0	0	0	517	204	515	
13	0	0	0	0	519	207	525	
14	0	0	0	0	520	212	529	
15	0	0	0	0	521	216	531	
0	0	0	0	0	521	221	533	
1	0	0	0	0	519	227	521	
2	0	0	0	0	519	232	531	
3	0	0	0	0	518	238	521	
4	0	0	0	0	518	246	519	
5	0	0	0	0	518	253	521	
6	0	0	0	0	516	262	513	
7	0	0	0	0	515	271	528	
8	0	0	0	0	516	280	533	
9	0	0	0	0	517	290	526	
10	0	0	0	0	519	300	532	
11	0	0	0	0	518	310	525	
12	0	0	0	0	518	318	522	
13	0	0	0	0	518	327	550	
14	0	0	0	0	516	335	568	
15	0	0	0	0	515	344	560	
0	0	0	0	0	514	350	531	
1	0	0	0	0	512	356	503	
2	0	0	0	0	512	363	490	
3	0	0	0	0	509	369	484	
4	0	0	0	0	506	374	487	
5	0	0	0	0	505	377	467	
6	0	0	0	0	507	381	474	
7	0	0	0	0	507	384	615	
8	0	0	0	0	508	387	888	
9	0	0	0	0	510	391	979	
10	0	0	0	0	510	395	745	
11	0	0	0	0	511	398	501	
12	0	0	0	0	510	399	366	
13	0	0	0	0	509	403	349	
14	0	0	0	0	510	406	367	
15	0	0	0	0	510	411	368	
0	0	0	0	0	508	418	401	
1	0	0	0	0	507	427	435	
2	0	0	0	0	508	435	443	
3	0	0	0	0	509	445	444	
4	0	0	0	0	509	454	472	
5	0	0	0	0	511	461	480	
6	0	0	0	0	511	465	513	
7	0	0	0	0	511	467	519	
8	0	0	0	0	510	468	523	
9	0	0	0	0	509	467	537	
10	0	0	0	0	509	466	546	
11	0	0	0	0	508	464	559	
12	0	0	0	0	505	464	570	
13	0	0	0	0	504	464	581	
14	0	0	0	0	502	465	559	
15	0	0	0	0	501	468	575	
0	0	0	0	0	499	471	552	
1	0	0	0	0	500	472	519	
2	0	0	0	0	503	475	504	
3	0	0	0	0	505	477	477	
4	0	0	0	0	506	479	464	
5	0	0	0	0	508	481	448	
6	0	0	0	0	511	484	470	
7	0	0	0	0	515	486	464	
8	0	0	0	0	516	487	463	
9	0	0	0	0	519	488	459	
10	0	0	0	0	521	489	472	
11	0	0	0	0	523	491	476	
12	0	0	0	0	523	494	481	
13	0	0	0	0	524	499	497	
14	0	0	0	0	525	506	503	
15	0	0	0	0	525	516	505	
0	0	0	0	0	524	528	502	
1	0	0	0	0	523	542	500	
2	0	0	0	0	523	555	473	
3	0	0	0	0	521	568	451	
4	0	0	0	0	519	581	419	
5	0	0	0	0	519	594	385	
6	0	0	0	0	519	608	391	
7	0	0	0	0	520	620	431	
8	0	0	0	0	519	632	483	
9	0	0	0	0	519	644	524	
10	0	0	0	0	520	656	537	
11	0	0	0	0	519	667	544	
12	0	0	0	0	518	677	510	
13	0	0	0	0	515	686	513	
14	0	0	0	0	516	693	500	
15	0	0	0	0	516	699	521	
0	0	0	0	0	515	705	516	
1	0	0	0	0	514	711	540	
2	0	0	0	0	516	718	582	
3	0	0	0	0	518	721	610	
4	0	0	0	0	518	724	620	
5	0	0	0	0	518	726	600	
6	0	0	0	0	517	726	571	
7	0	0	0	0	516	726	543	
8	0	0	0	0	516	725	527	
9	0	0	0	0	515	723	507	
10	0	0	0	0	515	721	499	
11	0	0	0	0	513	716	626	
12	0	0	0	0	513	709	924	
13	0	0	0	0	512	702	1022	
14	0	0	0	0	511	694	866	
15	0	0	0	0	509	687	553	
0	0	0	0	0	507	678	396	
1	0	0	0	0	507	670	353	
2	0	0	0	0	510	662	353	
3	0	0	0	0	510	653	344	
4	0	0	0	0	508	644	370	
5	0	0	0	0	509	636	399	
6	0	0	0	0	509	629	409	
7	0	0	0	0	508	624	432	
8	0	0	0	0	506	621	431	
9	0	0	0	0	505	617	441	
10	0	0	0	0	503	613	447	
11	0	0	0	0	504	608	473	
12	0	0	0	0	503	601	488	
13	0	0	0	0	504	594	499	
14	0	0	0	0	505	587	503	
15	0	0	0	0	506	580	523	
0	0	0	0	0	505	573	542	
1	0	0	0	0	506	566	558	
2	0	0	0	0	507	559	559	
3	0	0	0	0	508	553	546	
4	0	0	0	0	508	548	542	
5	0	0	0	0	508	543	527	
6	0	0	0	0	510	538	486	
7	0	0	0	0	511	533	457	
8	0	0	0	0	510	527	426	
9	0	0	0	0	511	523	403	
10	0	0	0	0	512	519	402	
11	0	0	0	0	513	515	406	
12	0	0	0	0	515	512	430	
13	0	0	0	0	517	510	441	
14	0	0	0	0	520	510	454	
15	0	0	0	0	522	512	465	
0	0	0	0	0	523	516	469	
1	0	0	0	0	525	524	481	
2	0	0	0	0	526	532	492	
3	0	0	0	0	526	540	519	
4	0	0	0	0	525	549	524	
5	0	0	0	0	526	557	529	
6	0	0	0	0	526	566	542	
7	0	0	0	0	526	574	548	
8	0	0	0	0	526	580	551	
9	0	0	0	0	526	585	554	
10	0	0	0	0	526	589	563	
11	0	0	0	0	523	591	560	
12	0	0	0	0	523	593	571	
13	0	0	0	0	521	594	560	
14	0	0	0	0	520	595	546	
15	0	0	0	0	520	596	537	
0	0	0	0	0	519	596	528	
1	0	0	0	0	518	596	529	
2	0	0	0	0	519	597	527	
3	0	0	0	0	517	596	519	
4	0	0	0	0	513	594	526	
5	0	0	0	0	514	590	528	
6	0	0	0	0	512	586	530	
7	0	0	0	0	511	580	525	
8	0	0	0	0	511	574	546	
9	0	0	0	0	509	567	550	
10	0	0	0	0	510	558	530	
11	0	0	0	0	511	549	510	
12	0	0	0	0	511	538	490	
13	0	0	0	0	511	527	454	
14	0	0	0	0	510	515	445	
15	0	0	0	0	509	504	476	
0	0	0	0	0	509	491	451	
1	0	0	0	0	510	479	471	
2	0	0	0	0	510	466	646	
3	0	0	0	0	511	453	959	
4	0	0	0	0	511	440	1022	
5	0	0	0	0	510	426	710	
6	0	0	0	0	511	412	456	
7	0	0	0	0	510	398	348	
8	0	0	0	0	510	384	335	
9	0	0	0	0	511	371	352	
10	0	0	0	0	512	358	358	
11	0	0	0	0	510	345	374	
12	0	0	0	0	509	334	378	
13	0	0	0	0	507	326	397	
14	0	0	0	0	505	318	409	
15	0	0	0	0	503	313	429	
0	0	0	0	0	502	306	442	
1	0	0	0	0	501	298	457	
2	0	0	0	0	501	288	467	
3	0	0	0	0	501	278	459	
4	0	0	0	0	499	267	499	
5	0	0	0	0	499	256	498	
6	0	0	0	0	500	246	515	
7	0	0	0	0	501	237	534	
8	0	0	0	0	501	229	559	
9	0	0	0	0	504	223	570	
10	0	0	0	0	507	216	577	
11	0	0	0	0	508	211	568	
12	0	0	0	0	509	206	541	
13	0	0	0	0	510	199	516	
14	0	0	0	0	511	194	486	
15	0	0	0	0	512	187	474	
0	0	0	0	0	515	180	463	
1	0	0	0	0	516	172	460	
2	0	0	0	0	516	163	462	
3	0	0	0	0	516	157	463	
4	0	0	0	0	519	149	468	
5	0	0	0	0	520	142	468	
6	0	0	0	0	519	136	466	
7	0	0	0	0	520	133	499	
8	0	0	0	0	520	132	496	
9	0	0	0	0	521	132	497	
10	0	0	0	0	522	133	499	
11	0	0	0	0	523	134	491	
12	0	0	0	0	522	135	501	
13	0	0	0	0	521	139	495	
14	0	0	0	0	519	139	487	
15	0	0	0	0	518	138	495	
0	0	0	0	0	515	137	482	
1	0	0	0	0	513	139	487	
2	0	0	0	0	511	139	496	
3	0	0	0	0	511	141	493	
4	0	0	0	0	511	143	494	
5	0	0	0	0	515	143	490	
6	0	0	0	0	516	145	487	
7	0	0	0	0	516	148	487	
8	0	0	0	0	516	150	488	
9	0	0	0	0	515	150	483	
10	0	0	0	0	515	152	494	
11	0	0	0	0	512	154	517	
12	0	0	0	0	512	155	542	
13	0	0	0	0	513	156	552	
14	0	0	0	0	515	159	562	
15	0	0	0	0	515	161	592	
0	0	0	0	0	515	162	572	
1	0	0	0	0	517	162	554	
2	0	0	0	0	515	164	523	
3	0	0	0	0	512	164	515	
4	0	0	0	0	510	165	502	
5	0	0	0	0	510	165	483	
6	0	0	0	0	512	167	449	
7	0	0	0	0	513	166	504	
8	0	0	0	0	513	165	671	
9	0	0	0	0	512	167	954	
10	0	0	0	0	513	169	955	
11	0	0	0	0	514	170	685	
12	0	0	0	0	513	172	465	
13	0	0	0	0	514	171	364	
14	0	0	0	0	513	170	360	
15	0	0	0	0	511	171	367	
0	0	0	0	0	509	172	390	
1	0	0	0	0	506	178	398	
2	0	0	0	0	504	185	417	
3	0	0	0	0	501	191	439	
4	0	0	0	0	500	198	472	
5	0	0	0	0	499	205	476	
6	0	0	0	0	501	208	484	
7	0	0	0	0	502	207	487	
8	0	0	0	0	502	202	510	
9	0	0	0	0	503	196	513	
10	0	0	0	0	502	190	506	
11	0	0	0	0	502	183	518	
12	0	0	0	0	502	179	533	
13	0	0	0	0	501	175	544	
14	0	0	0	0	501	175	552	
15	0	0	0	0	502	177	575	
0	0	0	0	0	501	178	579	
1	0	0	0	0	502	180	567	
2	0	0	0	0	504	182	549	
3	0	0	0	0	504	182	511	
4	0	0	0	0	504	180	492	
5	0	0	0	0	505	182	467	
6	0	0	0	0	506	181	437	
7	0	0	0	0	508	179	430	
8	0	0	0	0	510	178	416	
9	0	0	0	0	513	177	422	
10	0	0	0	0	515	174	450	
11	0	0	0	0	516	171	455	
12	0	0	0	0	517	172	484	
13	0	0	0	0	519	171	488	
14	0	0	0	0	520	173	500	
15	0	0	0	0	521	174	505	
0	0	0	0	0	524	177	500	
1	0	0	0	0	524	180	523	
2	0	0	0	0	523	184	509	
3	0	0	0	0	523	190	504	
4	0	0	0	0	523	195	496	
5	0	0	0	0	523	200	484	
6	0	0	0	0	523	207	487	
7	0	0	0	0	523	211	499	
8	0	0	0	0	523	219	504	
9	0	0	0	0	522	228	523	
10	0	0	0	0	520	236	524	
11	0	0	0	0	520	243	519	
12	0	0	0	0	519	249	513	
13	0	0	0	0	518	255	523	
14	0	0	0	0	516	262	515	
15	0	0	0	0	516	270	512	
0	0	0	0	0	515	278	502	
1	0	0	0	0	513	287	528	
2	0	0	0	0	513	296	565	
3	0	0	0	0	515	305	563	
4	0	0	0	0	514	315	569	
5	0	0	0	0	513	324	548	
6	0	0	0	0	511	333	563	
7	0	0	0	0	512	341	551	
8	0	0	0	0	511	348	537	
9	0	0	0	0	510	354	537	
10	0	0	0	0	511	359	519	
11	0	0	0	0	511	363	640	
12	0	0	0	0	512	367	904	
13	0	0	0	0	513	372	1015	
14	0	0	0	0	515	377	811	
15	0	0	0	0	514	383	565	
0	0	0	0	0	514	387	385	
1	0	0	0	0	512	392	348	
2	0	0	0	0	509	398	364	
3	0	0	0	0	507	404	363	
4	0	0	0	0	505	413	368	
5	0	0	0	0	504	425	391	
6	0	0	0	0	504	438	408	
7	0	0	0	0	504	453	410	
8	0	0	0	0	503	467	441	
9	0	0	0	0	501	480	449	
10	0	0	0	0	502	491	468	
11	0	0	0	0	500	499	479	
12	0	0	0	0	502	508	484	
13	0	0	0	0	503	516	500	
14	0	0	0	0	506	523	505	
15	0	0	0	0	507	530	520	
0	0	0	0	0	506	538	547	
1	0	0	0	0	505	546	551	
2	0	0	0	0	506	554	547	
3	0	0	0	0	506	563	565	
4	0	0	0	0	505	571	540	
5	0	0	0	0	505	580	518	
6	0	0	0	0	506	589	498	
7	0	0	0	0	508	598	471	
8	0	0	0	0	507	604	452	
9	0	0	0	0	506	609	437	
10	0	0	0	0	508	614	447	
11	0	0	0	0	510	617	448	
12	0	0	0	0	512	619	452	
13	0	0	0	0	514	621	463	
14	0	0	0	0	516	624	467	
15	0	0	0	0	518	627	484	
0	0	0	0	0	520	631	502	
1	0	0	0	0	519	634	500	
2	0	0	0	0	519	639	518	
3	0	0	0	0	520	644	509	
4	0	0	0	0	519	650	529	
5	0	0	0	0	519	656	527	
6	0	0	0	0	519	663	534	
7	0	0	0	0	520	668	518	
8	0	0	0	0	520	674	533	
9	0	0	0	0	520	679	525	
10	0	0	0	0	519	686	525	
11	0	0	0	0	520	691	515	
12	0	0	0	0	521	697	523	
13	0	0	0	0	521	703	518	
14	0	0	0	0	519	709	526	
15	0	0	0	0	519	715	514	
0	0	0	0	0	519	721	512	
1	0	0	0	0	518	727	508	
2	0	0	0	0	517	732	553	
3	0	0	0	0	517	737	537	
4	0	0	0	0	518	742	558	
5	0	0	0	0	517	746	566	
6	0	0	0	0	516	749	572	
7	0	0	0	0	515	752	548	
8	0	0	0	0	514	753	534	
9	0	0	0	0	514	753	499	
10	0	0	0	0	515	753	499	
11	0	0	0	0	518	751	494	
12	0	0	0	0	518	747	477	
13	0	0	0	0	518	743	455	
14	0	0	0	0	518	740	524	
15	0	0	0	0	519	736	764	
0	0	0	0	0	515	734	1021	
1	0	0	0	0	513	732	948	
2	0	0	0	0	513	730	629	
3	0	0	0	0	511	726	414	
4	0	0	0	0	508	722	341	
5	0	0	0	0	508	719	355	
6	0	0	0	0	508	715	369	
7	0	0	0	0	507	710	376	
8	0	0	0	0	506	703	401	
9	0	0	0	0	505	695	405	
10	0	0	0	0	504	688	434	
11	0	0	0	0	501	681	435	
12	0	0	0	0	500	675	463	
13	0	0	0	0	500	667	473	
14	0	0	0	0	499	656	500	
15	0	0	0	0	501	645	494	
0	0	0	0	0	503	632	511	
1	0	0	0	0	503	619	510	
2	0	0	0	0	506	604	534	
3	0	0	0	0	507	589	541	
4	0	0	0	0	509	574	545	
5	0	0	0	0	511	559	572	
6	0	0	0	0	511	547	552	
7	0	0	0	0	510	536	546	
8	0	0	0	0	511	527	531	
9	0	0	0	0	511	519	499	
10	0	0	0	0	511	510	475	
11	0	0	0	0	511	501	458	
12	0	0	0	0	511	492	456	
13	0	0	0	0	512	483	443	
14	0	0	0	0	512	473	451	
15	0	0	0	0	513	465	457	
0	0	0	0	0	513	457	467	
1	0	0	0	0	515	450	470	
2	0	0	0	0	517	444	472	
3	0	0	0	0	519	438	480	
4	0	0	0	0	518	433	497	
5	0	0	0	0	519	430	508	
6	0	0	0	0	519	427	505	
7	0	0	0	0	518	425	511	
8	0	0	0	0	518	424	514	
9	0	0	0	0	516	424	521	
10	0	0	0	0	514	425	522	
11	0	0	0	0	513	426	525	
12	0	0	0	0	511	427	524	
13	0	0	0	0	512	426	516	
14	0	0	0	0	513	425	525	
15	0	0	0	0	513	423	522	
0	0	0	0	0	513	421	525	
1	0	0	0	0	514	419	502	
2	0	0	0	0	515	417	515	
3	0	0	0	0	516	416	511	
4	0	0	0	0	517	416	512	
5	0	0	0	0	518	416	514	
6	0	0	0	0	518	417	532	
7	0	0	0	0	518	418	522	
8	0	0	0	0	520	419	515	
9	0	0	0	0	523	421	545	
10	0	0	0	0	525	423	544	
11	0	0	0	0	527	424	536	
12	0	0	0	0	529	427	502	
13	0	0	0	0	532	430	476	
14	0	0	0	0	534	433	476	
15	0	0	0	0	533	435	468	
0	0	0	0	0	532	439	449	
1	0	0	0	0	531	442	442	
2	0	0	0	0	530	446	518	
3	0	0	0	0	525	450	796	
4	0	0	0	0	521	455	1022	
5	0	0	0	0	519	460	921	
6	0	0	0	0	518	467	558	
7	0	0	0	0	516	473	387	
8	0	0	0	0	515	481	337	
9	0	0	0	0	516	490	341	
10	0	0	0	0	517	500	362	
11	0	0	0	0	518	508	369	
12	0	0	0	0	519	515	392	
13	0	0	0	0	520	522	402	
14	0	0	0	0	521	529	420	
15	0	0	0	0	522	537	441	
0	0	0	0	0	524	544	455	
1	0	0	0	0	524	549	465	
2	0	0	0	0	526	554	478	
3	0	0	0	0	527	557	496	
4	0	0	0	0	526	560	511	
5	0	0	0	0	525	561	523	
6	0	0	0	0	523	563	531	
7	0	0	0	0	520	564	563	
8	0	0	0	0	518	564	581	
9	0	0	0	0	517	564	572	
10	0	0	0	0	516	565	581	
11	0	0	0	0	514	564	575	
12	0	0	0	0	513	563	567	
13	0	0	0	0	513	561	528	
14	0	0	0	0	515	558	501	
15	0	0	0	0	516	553	473	
0	0	0	0	0	516	548	461	
1	0	0	0	0	515	542	449	
2	0	0	0	0	515	535	448	
3	0	0	0	0	517	527	456	
4	0	0	0	0	519	519	458	
5	0	0	0	0	523	511	463	
6	0	0	0	0	526	502	464	
7	0	0	0	0	528	494	472	
8	0	0	0	0	530	486	496	
9	0	0	0	0	532	478	502	
10	0	0	0	0	534	469	503	
11	0	0	0	0	536	459	502	
12	0	0	0	0	537	449	508	
13	0	0	0	0	539	438	515	
14	0	0	0	0	539	427	507	
15	0	0	0	0	539	416	504	
0	0	0	0	0	538	404	503	
1	0	0	0	0	539	393	497	
2	0	0	0	0	538	382	506	
3	0	0	0	0	536	371	505	
4	0	0	0	0	535	361	507	
5	0	0	0	0	532	351	507	
6	0	0	0	0	530	343	490	
7	0	0	0	0	529	333	519	
8	0	0	0	0	527	324	526	
9	0	0	0	0	527	317	516	
10	0	0	0	0	525	309	525	
11	0	0	0	0	522	300	530	
12	0	0	0	0	521	291	529	
13	0	0	0	0	520	282	546	
14	0	0	0	0	519	274	567	
15	0	0	0	0	519	265	534	
0	0	0	0	0	520	259	517	
1	0	0	0	0	523	253	494	
2	0	0	0	0	522	249	484	
3	0	0	0	0	521	244	489	
4	0	0	0	0	521	240	486	
5	0	0	0	0	520	237	458	
6	0	0	0	0	520	234	480	
7	0	0	0	0	519	231	653	
8	0	0	0	0	519	231	950	
9	0	0	0	0	521	229	986	
10	0	0	0	0	521	228	715	
11	0	0	0	0	521	228	470	
12	0	0	0	0	518	227	344	
13	0	0	0	0	517	226	346	
14	0	0	0	0	515	225	358	
15	0	0	0	0	513	226	359	
0	0	0	0	0	513	225	377	
1	0	0	0	0	513	228	402	
2	0	0	0	0	513	231	414	
3	0	0	0	0	513	236	423	
4	0	0	0	0	513	242	438	
5	0	0	0	0	514	246	453	
6	0	0	0	0	513	245	463	
7	0	0	0	0	513	241	478	
8	0	0	0	0	513	235	483	
9	0	0	0	0	514	227	501	
10	0	0	0	0	514	220	514	
11	0	0	0	0	512	213	520	
12	0	0	0	0	510	207	559	
13	0	0	0	0	508	204	556	
14	0	0	0	0	509	200	556	
15	0	0	0	0	508	199	552	
0	0	0	0	0	508	200	543	
1	0	0	0	0	509	200	519	
2	0	0	0	0	509	201	482	
3	0	0	0	0	509	201	462	
4	0	0	0	0	509	201	452	
5	0	0	0	0	510	201	440	
6	0	0	0	0	513	200	447	
7	0	0	0	0	514	201	417	
8	0	0	0	0	515	199	449	
9	0	0	0	0	518	198	450	
10	0	0	0	0	518	198	454	
11	0	0	0	0	519	199	466	
12	0	0	0	0	523	201	483	
13	0	0	0	0	528	207	480	
14	0	0	0	0	532	212	496	
15	0	0	0	0	534	219	500	
0	0	0	0	0	536	225	513	
1	0	0	0	0	540	231	503	
2	0	0	0	0	540	236	526	
3	0	0	0	0	540	239	497	
4	0	0	0	0	538	241	521	
5	0	0	0	0	537	240	513	
6	0	0	0	0	536	239	501	
7	0	0	0	0	535	235	520	
8	0	0	0	0	534	231	519	
9	0	0	0	0	533	229	505	
10	0	0	0	0	531	224	511	
11	0	0	0	0	530	221	510	
12	0	0	0	0	529	218	509	
13	0	0	0	0	528	215	525	
14	0	0	0	0	526	214	537	
15	0	0	0	0	523	213	557	
0	0	0	0	0	521	213	584	
1	0	0	0	0	519	213	551	
2	0	0	0	0	519	215	528	
3	0	0	0	0	518	216	497	
4	0	0	0	0	516	216	483	
5	0	0	0	0	517	215	487	
6	0	0	0	0	517	214	483	
7	0	0	0	0	515	214	472	
8	0	0	0	0	513	214	553	
9	0	0	0	0	512	215	789	
10	0	0	0	0	513	217	969	
11	0	0	0	0	515	218	863	
12	0	0	0	0	517	221	632	
13	0	0	0	0	518	223	428	
14	0	0	0	0	519	223	362	
15	0	0	0	0	520	224	383	
0	0	0	0	0	519	226	400	
1	0	0	0	0	517	231	423	
2	0	0	0	0	515	238	417	
3	0	0	0	0	513	246	429	
4	0	0	0	0	512	253	464	
5	0	0	0	0	512	260	475	
6	0	0	0	0	511	267	482	
7	0	0	0	0	508	271	499	
8	0	0	0	0	505	271	503	
9	0	0	0	0	506	270	514	
10	0	0	0	0	508	265	515	
11	0	0	0	0	508	261	521	
12	0	0	0	0	509	259	545	
13	0	0	0	0	510	256	543	
14	0	0	0	0	508	255	551	
15	0	0	0	0	508	256	568	
0	0	0	0	0	508	258	561	
1	0	0	0	0	509	260	550	
2	0	0	0	0	510	260	520	
3	0	0	0	0	511	262	492	
4	0	0	0	0	512	262	462	
5	0	0	0	0	514	263	436	
6	0	0	0	0	515	263	412	
7	0	0	0	0	517	263	431	
8	0	0	0	0	520	263	438	
9	0	0	0	0	521	263	447	
10	0	0	0	0	522	263	446	
11	0	0	0	0	522	259	473	
12	0	0	0	0	523	257	479	
13	0	0	0	0	523	256	471	
14	0	0	0	0	523	255	493	
15	0	0	0	0	523	254	502	
0	0	0	0	0	525	251	506	
1	0	0	0	0	529	251	530	
2	0	0	0	0	529	253	538	
3	0	0	0	0	530	255	521	
4	0	0	0	0	532	259	516	
5	0	0	0	0	533	261	527	
6	0	0	0	0	533	263	528	
7	0	0	0	0	534	264	519	
8	0	0	0	0	535	266	526	
9	0	0	0	0	536	270	535	
10	0	0	0	0	534	273	522	
11	0	0	0	0	532	277	530	
12	0	0	0	0	530	281	540	
13	0	0	0	0	527	285	541	
14	0	0	0	0	526	288	538	
15	0	0	0	0	526	292	551	
0	0	0	0	0	526	296	551	
1	0	0	0	0	525	301	517	
2	0	0	0	0	524	308	496	
3	0	0	0	0	523	313	494	
4	0	0	0	0	522	319	480	
5	0	0	0	0	521	324	481	
6	0	0	0	0	522	329	487	
7	0	0	0	0	520	332	457	
8	0	0	0	0	516	336	524	
9	0	0	0	0	515	340	745	
10	0	0	0	0	515	345	934	
11	0	0	0	0	514	349	851	
12	0	0	0	0	515	353	641	
13	0	0	0	0	517	357	437	
14	0	0	0	0	517	359	326	
15	0	0	0	0	517	363	359	
0	0	0	0	0	519	369	373	
1	0	0	0	0	519	376	383	
2	0	0	0	0	519	386	391	
3	0	0	0	0	517	395	377	
4	0	0	0	0	518	403	392	
5	0	0	0	0	516	412	402	
6	0	0	0	0	514	418	436	
7	0	0	0	0	512	424	483	
8	0	0	0	0	510	429	507	
9	0	0	0	0	509	433	518	
10	0	0	0	0	509	437	513	
11	0	0	0	0	507	440	519	
12	0	0	0	0	507	442	539	
13	0	0	0	0	505	445	556	
14	0	0	0	0	504	449	579	
15	0	0	0	0	505	454	565	
0	0	0	0	0	505	460	593	
1	0	0	0	0	505	466	598	
2	0	0	0	0	508	472	592	
3	0	0	0	0	509	480	573	
4	0	0	0	0	511	487	540	
5	0	0	0	0	515	495	534	
6	0	0	0	0	519	502	512	
7	0	0	0	0	521	508	484	
8	0	0	0	0	523	513	469	
9	0	0	0	0	526	518	481	
10	0	0	0	0	530	523	476	
11	0	0	0	0	531	527	486	
12	0	0	0	0	532	531	478	
13	0	0	0	0	533	536	512	
14	0	0	0	0	534	540	500	
15	0	0	0	0	535	545	515	
0	0	0	0	0	536	551	516	
1	0	0	0	0	536	558	496	
2	0	0	0	0	537	567	520	
3	0	0	0	0	538	579	507	
4	0	0	0	0	539	591	507	
5	0	0	0	0	541	604	507	
6	0	0	0	0	542	620	510	
7	0	0	0	0	541	635	512	
8	0	0	0	0	540	650	506	
9	0	0	0	0	538	666	489	
10	0	0	0	0	537	681	493	
11	0	0	0	0	536	698	499	
12	0	0	0	0	535	713	518	
13	0	0	0	0	534	728	521	
14	0	0	0	0	531	743	525	
15	0	0	0	0	529	758	545	
0	0	0	0	0	529	772	569	
1	0	0	0	0	530	787	534	
2	0	0	0	0	531	802	498	
3	0	0	0	0	533	816	490	
4	0	0	0	0	534	828	485	
5	0	0	0	0	534	839	472	
6	0	0	0	0	533	850	492	
7	0	0	0	0	535	861	468	
8	0	0	0	0	533	871	495	
9	0	0	0	0	532	881	667	
10	0	0	0	0	533	889	953	
11	0	0	0	0	533	897	984	
12	0	0	0	0	529	905	710	
13	0	0	0	0	526	911	469	
14	0	0	0	0	524	915	349	
15	0	0	0	0	521	922	365	
0	0	0	0	0	519	928	370	
1	0	0	0	0	517	934	362	
2	0	0	0	0	516	940	401	
3	0	0	0	0	515	945	409	
4	0	0	0	0	514	950	431	
5	0	0	0	0	512	954	445	
6	0	0	0	0	514	959	450	
7	0	0	0	0	516	961	472	
8	0	0	0	0	517	961	471	
9	0	0	0	0	518	959	493	
10	0	0	0	0	519	955	508	
11	0	0	0	0	518	947	526	
12	0	0	0	0	519	938	546	
13	0	0	0	0	519	928	551	
14	0	0	0	0	518	918	574	
15	0	0	0	0	519	907	579	
0	0	0	0	0	518	898	575	
1	0	0	0	0	518	889	561	
2	0	0	0	0	516	880	562	
3	0	0	0	0	514	870	528	
4	0	0	0	0	514	860	499	
5	0	0	0	0	513	850	475	
6	0	0	0	0	514	841	454	
7	0	0	0	0	515	834	446	
8	0	0	0	0	518	827	437	
9	0	0	0	0	519	820	450	
10	0	0	0	0	523	814	461	
11	0	0	0	0	527	807	472	
12	0	0	0	0	530	799	461	
13	0	0	0	0	534	790	470	
14	0	0	0	0	537	781	484	
15	0	0	0	0	541	771	500	
0	0	0	0	0	544	761	501	
1	0	0	0	0	548	751	507	
2	0	0	0	0	551	741	514	
3	0	0	0	0	553	730	503	
4	0	0	0	0	553	719	476	
5	0	0	0	0	553	707	465	
6	0	0	0	0	551	694	465	
7	0	0	0	0	549	681	472	
8	0	0	0	0	548	667	478	
9	0	0	0	0	546	652	471	
10	0	0	0	0	543	637	467	
11	0	0	0	0	543	623	487	
12	0	0	0	0	542	609	473	
13	0	0	0	0	542	596	487	
14	0	0	0	0	540	584	501	
15	0	0	0	0	539	573	512	
0	0	0	0	0	537	562	515	
1	0	0	0	0	537	551	517	
2	0	0	0	0	536	542	545	
3	0	0	0	0	536	532	557	
4	0	0	0	0	534	524	531	
5	0	0	0	0	534	516	508	
6	0	0	0	0	535	511	500	
7	0	0	0	0	536	505	499	
8	0	0	0	0	536	500	489	
9	0	0	0	0	536	496	496	
10	0	0	0	0	536	492	473	
11	0	0	0	0	536	489	596	
12	0	0	0	0	534	486	910	
13	0	0	0	0	534	483	1022	
14	0	0	0	0	532	480	882	
15	0	0	0	0	531	477	540	
0	0	0	0	0	528	473	383	
1	0	0	0	0	527	470	348	
2	0	0	0	0	527	470	360	
3	0	0	0	0	526	470	360	
4	0	0	0	0	524	469	387	
5	0	0	0	0	523	468	379	
6	0	0	0	0	523	468	428	
7	0	0	0	0	521	467	428	
8	0	0	0	0	519	468	439	
9	0	0	0	0	519	468	464	
10	0	0	0	0	520	468	472	
11	0	0	0	0	523	468	487	
12	0	0	0	0	522	467	489	
13	0	0	0	0	520	466	513	
14	0	0	0	0	516	465	541	
15	0	0	0	0	515	465	543	
0	0	0	0	0	513	464	559	
1	0	0	0	0	512	463	571	
2	0	0	0	0	511	462	583	
3	0	0	0	0	511	462	575	
4	0	0	0	0	512	463	570	
5	0	0	0	0	512	464	552	
6	0	0	0	0	515	465	528	
7	0	0	0	0	517	467	489	
8	0	0	0	0	520	469	487	
9	0	0	0	0	523	470	475	
10	0	0	0	0	525	471	475	
11	0	0	0	0	528	472	476	
12	0	0	0	0	531	473	483	
13	0	0	0	0	533	475	478	
14	0	0	0	0	536	476	490	
15	0	0	0	0	540	478	492	
0	0	0	0	0	543	480	499	
1	0	0	0	0	548	483	493	
2	0	0	0	0	551	485	502	
3	0	0	0	0	556	487	515	
4	0	0	0	0	556	489	505	
5	0	0	0	0	559	491	512	
6	0	0	0	0	559	491	515	
7	0	0	0	0	559	491	519	
8	0	0	0	0	557	489	510	
9	0	0	0	0	557	487	516	
10	0	0	0	0	556	482	513	
11	0	0	0	0	553	476	515	
12	0	0	0	0	550	470	509	
13	0	0	0	0	547	462	498	
14	0	0	0	0	548	455	506	
15	0	0	0	0	547	447	504	
0	0	0	0	0	545	439	502	
1	0	0	0	0	544	432	511	
2	0	0	0	0	543	424	516	
3	0	0	0	0	543	415	536	
4	0	0	0	0	543	407	535	
5	0	0	0	0	544	398	538	
6	0	0	0	0	543	388	562	
7	0	0	0	0	541	377	552	
8	0	0	0	0	539	367	527	
9	0	0	0	0	537	358	503	
10	0	0	0	0	537	348	488	
11	0	0	0	0	537	339	487	
12	0	0	0	0	536	330	484	
13	0	0	0	0	534	320	481	
14	0	0	0	0	532	310	476	
15	0	0	0	0	530	300	610	
0	0	0	0	0	529	289	941	
1	0	0	0	0	528	278	1022	
2	0	0	0	0	525	268	811	
3	0	0	0	0	525	257	516	
4	0	0	0	0	525	244	370	
5	0	0	0	0	524	231	348	
6	0	0	0	0	523	220	358	
7	0	0	0	0	523	209	353	
8	0	0	0	0	522	196	382	
9	0	0	0	0	520	183	398	
10	0	0	0	0	518	172	423	
11	0	0	0	0	516	160	432	
12	0	0	0	0	513	152	460	
13	0	0	0	0	510	146	474	
14	0	0	0	0	508	138	486	
15	0	0	0	0	507	129	494	
0	0	0	0	0	505	121	492	
1	0	0	0	0	504	113	508	
2	0	0	0	0	503	106	528	
3	0	0	0	0	504	99	542	
4	0	0	0	0	506	92	552	
5	0	0	0	0	505	87	565	
6	0	0	0	0	505	81	549	
7	0	0	0	0	505	78	555	
8	0	0	0	0	506	75	547	
9	0	0	0	0	507	73	527	
10	0	0	0	0	509	72	492	
11	0	0	0	0	514	72	465	
12	0	0	0	0	518	72	451	
13	0	0	0	0	521	71	432	
14	0	0	0	0	524	70	426	
15	0	0	0	0	526	71	415	
0	0	0	0	0	528	71	443	
1	0	0	0	0	531	73	462	
2	0	0	0	0	533	74	451	
3	0	0	0	0	534	73	452	
4	0	0	0	0	536	75	461	
5	0	0	0	0	536	77	472	
6	0	0	0	0	537	81	488	
7	0	0	0	0	538	89	492	
8	0	0	0	0	539	102	497	
9	0	0	0	0	539	117	515	
10	0	0	0	0	539	131	519	
11	0	0	0	0	539	144	523	
12	0	0	0	0	538	158	534	
13	0	0	0	0	538	171	505	
14	0	0	0	0	540	181	515	
15	0	0	0	0	540	191	501	
0	0	0	0	0	542	199	493	
1	0	0	0	0	542	206	487	
2	0	0	0	0	542	213	513	
3	0	0	0	0	541	218	504	
4	0	0	0	0	540	223	564	
5	0	0	0	0	540	226	575	
6	0	0	0	0	539	230	595	
7	0	0	0	0	536	235	608	
8	0	0	0	0	535	238	592	
9	0	0	0	0	533	240	602	
10	0	0	0	0	532	241	584	
11	0	0	0	0	529	242	613	
12	0	0	0	0	527	239	611	
13	0	0	0	0	526	235	563	
14	0	0	0	0	524	231	532	
15	0	0	0	0	523	225	497	
0	0	0	0	0	521	218	476	
1	0	0	0	0	518	209	488	
2	0	0	0	0	516	200	499	
3	0	0	0	0	513	192	461	
4	0	0	0	0	512	184	469	
5	0	0	0	0	512	176	601	
6	0	0	0	0	512	169	879	
7	0	0	0	0	514	166	954	
8	0	0	0	0	512	162	710	
9	0	0	0	0	512	161	452	
10	0	0	0	0	512	157	309	
11	0	0	0	0	512	155	297	
12	0	0	0	0	511	154	305	
13	0	0	0	0	512	156	351	
14	0	0	0	0	512	159	379	
15	0	0	0	0	511	166	384	
0	0	0	0	0	510	171	394	
1	0	0	0	0	508	177	402	
2	0	0	0	0	507	182	421	
3	0	0	0	0	506	185	425	
4	0	0	0	0	505	184	451	
5	0	0	0	0	504	178	465	
6	0	0	0	0	503	173	486	
7	0	0	0	0	501	166	488	
8	0	0	0	0	499	162	489	
9	0	0	0	0	497	160	507	
10	0	0	0	0	495	161	511	
11	0	0	0	0	494	164	522	
12	0	0	0	0	494	169	514	
13	0	0	0	0	495	175	511	
14	0	0	0	0	497	181	526	
15	0	0	0	0	498	189	504	
0	0	0	0	0	500	195	486	
1	0	0	0	0	503	198	476	
2	0	0	0	0	502	203	464	
3	0	0	0	0	502	204	448	
4	0	0	0	0	505	207	464	
5	0	0	0	0	508	208	434	
6	0	0	0	0	512	210	441	
7	0	0	0	0	515	210	451	
8	0	0	0	0	516	209	466	
9	0	0	0	0	519	209	447	
10	0	0	0	0	521	210	478	
11	0	0	0	0	523	212	486	
12	0	0	0	0	524	213	499	
13	0	0	0	0	525	217	508	
14	0	0	0	0	524	221	514	
15	0	0	0	0	521	227	511	
0	0	0	0	0	519	233	522	
1	0	0	0	0	517	238	529	
2	0	0	0	0	517	244	530	
3	0	0	0	0	516	250	536	
4	0	0	0	0	515	255	514	
5	0	0	0	0	516	261	517	
6	0	0	0	0	517	268	528	
7	0	0	0	0	516	274	526	
8	0	0	0	0	516	281	520	
9	0	0	0	0	516	289	525	
10	0	0	0	0	516	296	508	
11	0	0	0	0	514	302	534	
12	0	0	0	0	512	310	537	
13	0	0	0	0	513	315	542	
14	0	0	0	0	513	322	540	
15	0	0	0	0	513	329	569	
0	0	0	0	0	513	337	567	
1	0	0	0	0	515	346	559	
2	0	0	0	0	515	355	525	
3	0	0	0	0	515	364	499	
4	0	0	0	0	515	372	504	
5	0	0	0	0	514	380	495	
6	0	0	0	0	510	387	503	
7	0	0	0	0	508	393	480	
8	0	0	0	0	508	399	514	
9	0	0	0	0	508	405	692	
10	0	0	0	0	508	411	943	
11	0	0	0	0	505	416	987	
12	0	0	0	0	504	422	740	
13	0	0	0	0	503	428	515	
14	0	0	0	0	502	432	373	
15	0	0	0	0	501	438	345	
0	0	0	0	0	499	444	377	
1	0	0	0	0	500	452	378	
2	0	0	0	0	498	464	410	
3	0	0	0	0	497	478	420	
4	0	0	0	0	496	491	441	
5	0	0	0	0	495	506	449	
6	0	0	0	0	494	521	462	
7	0	0	0	0	491	534	484	
8	0	0	0	0	490	543	497	
9	0	0	0	0	489	551	520	
10	0	0	0	0	489	556	522	
11	0	0	0	0	489	559	530	
12	0	0	0	0	491	562	535	
13	0	0	0	0	494	565	555	
14	0	0	0	0	495	568	543	
15	0	0	0	0	497	573	557	
0	0	0	0	0	498	578	568	
1	0	0	0	0	499	584	564	
2	0	0	0	0	499	590	546	
3	0	0	0	0	498	595	534	
4	0	0	0	0	497	600	510	
5	0	0	0	0	499	605	481	
6	0	0	0	0	499	610	473	
7	0	0	0	0	499	613	455	
8	0	0	0	0	499	616	463	
9	0	0	0	0	501	619	451	
10	0	0	0	0	502	622	446	
11	0	0	0	0	503	623	462	
12	0	0	0	0	505	624	473	
13	0	0	0	0	508	625	492	
14	0	0	0	0	511	628	510	
15	0	0	0	0	512	630	516	
0	0	0	0	0	515	632	520	
1	0	0	0	0	515	635	523	
2	0	0	0	0	516	641	516	
3	0	0	0	0	518	648	527	
4	0	0	0	0	519	657	525	
5	0	0	0	0	522	666	512	
6	0	0	0	0	523	675	502	
7	0	0	0	0	524	684	522	
8	0	0	0	0	524	691	519	
9	0	0	0	0	523	696	515	
10	0	0	0	0	521	701	515	
11	0	0	0	0	519	704	517	
12	0	0	0	0	518	707	525	
13	0	0	0	0	516	712	519	
14	0	0	0	0	513	718	517	
15	0	0	0	0	510	724	519	
0	0	0	0	0	507	730	506	
1	0	0	0	0	505	737	509	
2	0	0	0	0	505	743	525	
3	0	0	0	0	504	748	538	
4	0	0	0	0	503	753	542	
5	0	0	0	0	504	756	565	
6	0	0	0	0	506	759	580	
7	0	0	0	0	506	760	560	
8	0	0	0	0	505	760	523	
9	0	0	0	0	506	758	508	
10	0	0	0	0	507	756	497	
11	0	0	0	0	507	754	498	
12	0	0	0	0	506	751	488	
13	0	0	0	0	506	746	465	
14	0	0	0	0	506	739	541	
15	0	0	0	0	506	733	781	
0	0	0	0	0	505	726	1022	
1	0	0	0	0	506	719	935	
2	0	0	0	0	504	713	610	
3	0	0	0	0	504	706	411	
4	0	0	0	0	500	700	337	
5	0	0	0	0	499	695	355	
6	0	0	0	0	497	689	365	
7	0	0	0	0	497	681	367	
8	0	0	0	0	495	672	385	
9	0	0	0	0	496	663	409	
10	0	0	0	0	495	653	425	
11	0	0	0	0	494	643	448	
12	0	0	0	0	495	633	443	
13	0	0	0	0	494	621	467	
14	0	0	0	0	494	607	470	
15	0	0	0	0	494	591	484	
0	0	0	0	0	495	572	479	
1	0	0	0	0	493	551	507	
2	0	0	0	0	493	530	513	
3	0	0	0	0	492	508	532	
4	0	0	0	0	492	487	550	
5	0	0	0	0	493	466	557	
6	0	0	0	0	492	447	571	
7	0	0	0	0	492	430	569	
8	0	0	0	0	492	414	554	
9	0	0	0	0	494	399	518	
10	0	0	0	0	496	384	501	
11	0	0	0	0	496	369	470	
12	0	0	0	0	497	356	453	
13	0	0	0	0	501	343	446	
14	0	0	0	0	504	331	443	
15	0	0	0	0	506	320	439	
0	0	0	0	0	507	310	451	
1	0	0	0	0	510	302	460	
2	0	0	0	0	512	293	478	
3	0	0	0	0	515	286	473	
4	0	0	0	0	516	279	484	
5	0	0	0	0	517	274	500	
6	0	0	0	0	519	269	498	
7	0	0	0	0	520	266	483	
8	0	0	0	0	520	263	512	
9	0	0	0	0	521	262	494	
10	0	0	0	0	521	259	486	
11	0	0	0	0	520	258	518	
12	0	0	0	0	519	258	513	
13	0	0	0	0	519	258	515	
14	0	0	0	0	516	258	507	
15	0	0	0	0	513	258	525	
0	0	0	0	0	512	257	526	
1	0	0	0	0	512	255	527	
2	0	0	0	0	512	252	538	
3	0	0	0	0	511	248	542	
4	0	0	0	0	511	243	533	
5	0	0	0	0	513	239	530	
6	0	0	0	0	514	236	523	
7	0	0	0	0	514	233	517	
8	0	0	0	0	512	231	536	
9	0	0	0	0	512	230	527	
10	0	0	0	0	512	231	524	
11	0	0	0	0	510	234	533	
12	0	0	0	0	507	239	545	
13	0	0	0	0	505	245	528	
14	0	0	0	0	506	254	518	
15	0	0	0	0	504	262	502	
0	0	0	0	0	504	271	487	
1	0	0	0	0	502	279	479	
2	0	0	0	0	499	285	466	
3	0	0	0	0	498	292	416	
4	0	0	0	0	497	298	436	
5	0	0	0	0	499	303	619	
6	0	0	0	0	498	307	909	
7	0	0	0	0	499	313	947	
8	0	0	0	0	499	321	583	
9	0	0	0	0	499	331	303	
10	0	0	0	0	497	338	153	
11	0	0	0	0	495	344	152	
12	0	0	0	0	494	349	248	
13	0	0	0	0	494	354	309	
14	0	0	0	0	494	357	356	
15	0	0	0	0	495	363	431	
0	0	0	0	0	495	369	457	
1	0	0	0	0	496	379	498	
2	0	0	0	0	497	388	540	
3	0	0	0	0	496	396	556	
4	0	0	0	0	495	400	555	
5	0	0	0	0	494	402	550	
6	0	0	0	0	493	402	535	
7	0	0	0	0	493	400	551	
8	0	0	0	0	493	396	581	
9	0	0	0	0	494	393	598	
10	0	0	0	0	495	390	621	
11	0	0	0	0	495	387	651	
12	0	0	0	0	497	384	660	
13	0	0	0	0	499	383	664	
14	0	0	0	0	499	381	644	
15	0	0	0	0	500	380	596	
0	0	0	0	0	499	377	530	
1	0	0	0	0	497	374	494	
2	0	0	0	0	498	373	451	
3	0	0	0	0	499	372	413	
4	0	0	0	0	499	373	390	
5	0	0	0	0	501	374	414	
6	0	0	0	0	505	375	432	
7	0	0	0	0	508	376	439	
8	0	0	0	0	509	377	450	
9	0	0	0	0	509	376	472	
10	0	0	0	0	511	377	480	
11	0	0	0	0	513	380	481	
12	0	0	0	0	511	385	481	
13	0	0	0	0	511	391	484	
14	0	0	0	0	511	396	502	
15	0	0	0	0	511	402	514	
0	0	0	0	0	512	407	528	
1	0	0	0	0	513	412	514	
2	0	0	0	0	513	416	504	
3	0	0	0	0	515	422	517	
4	0	0	0	0	515	427	509	
5	0	0	0	0	512	433	499	
6	0	0	0	0	510	438	491	
7	0	0	0	0	509	444	492	
8	0	0	0	0	510	448	488	
9	0	0	0	0	509	452	491	
10	0	0	0	0	509	456	484	
11	0	0	0	0	509	461	492	
12	0	0	0	0	509	465	501	
13	0	0	0	0	508	470	513	
14	0	0	0	0	508	474	504	
15	0	0	0	0	507	478	523	
0	0	0	0	0	505	480	544	
1	0	0	0	0	505	483	540	
2	0	0	0	0	504	485	524	
3	0	0	0	0	503	487	461	
4	0	0	0	0	503	488	499	
5	0	0	0	0	504	489	484	
6	0	0	0	0	505	488	478	
7	0	0	0	0	504	485	471	
8	0	0	0	0	502	481	457	
9	0	0	0	0	503	477	550	
10	0	0	0	0	503	474	800	
11	0	0	0	0	503	472	979	
12	0	0	0	0	502	471	841	
13	0	0	0	0	502	472	605	
14	0	0	0	0	499	471	405	
15	0	0	0	0	498	470	328	
0	0	0	0	0	499	469	368	
1	0	0	0	0	499	472	381	
2	0	0	0	0	497	480	382	
3	0	0	0	0	497	490	397	
4	0	0	0	0	498	499	419	
5	0	0	0	0	499	509	438	
6	0	0	0	0	499	518	454	
7	0	0	0	0	501	526	442	
8	0	0	0	0	501	532	478	
9	0	0	0	0	502	537	491	
10	0	0	0	0	501	543	508	
11	0	0	0	0	498	550	509	
12	0	0	0	0	497	558	524	
13	0	0	0	0	495	569	525	
14	0	0	0	0	493	582	541	
15	0	0	0	0	493	599	547	
0	0	0	0	0	493	619	572	
1	0	0	0	0	491	642	573	
2	0	0	0	0	492	667	562	
3	0	0	0	0	490	690	553	
4	0	0	0	0	490	711	525	
5	0	0	0	0	491	731	496	
6	0	0	0	0	493	750	483	
7	0	0	0	0	496	767	463	
8	0	0	0	0	498	783	457	
9	0	0	0	0	500	798	456	
10	0	0	0	0	503	812	458	
11	0	0	0	0	505	823	459	
12	0	0	0	0	505	830	457	
13	0	0	0	0	507	836	494	
14	0	0	0	0	508	839	508	
15	0	0	0	0	510	840	504	
0	0	0	0	0	510	840	506	
1	0	0	0	0	510	837	529	
2	0	0	0	0	509	833	539	
3	0	0	0	0	507	831	530	
4	0	0	0	0	507	828	546	
5	0	0	0	0	509	825	555	
6	0	0	0	0	508	823	559	
7	0	0	0	0	507	821	558	
8	0	0	0	0	507	818	553	
9	0	0	0	0	506	815	545	
10	0	0	0	0	508	810	529	
11	0	0	0	0	509	806	511	
12	0	0	0	0	508	803	502	
13	0	0	0	0	509	802	468	
14	0	0	0	0	510	803	454	
15	0	0	0	0	509	804	458	
0	0	0	0	0	508	807	485	
1	0	0	0	0	509	810	523	
2	0	0	0	0	509	813	540	
3	0	0	0	0	508	816	574	
4	0	0	0	0	505	818	596	
5	0	0	0	0	505	821	583	
6	0	0	0	0	504	823	555	
7	0	0	0	0	505	825	510	
8	0	0	0	0	504	828	485	
9	0	0	0	0	506	828	479	
10	0	0	0	0	508	828	475	
11	0	0	0	0	508	826	473	
12	0	0	0	0	506	823	466	
13	0	0	0	0	506	821	591	
14	0	0	0	0	504	819	885	
15	0	0	0	0	502	819	1022	
0	0	0	0	0	499	820	814	
1	0	0	0	0	498	822	526	
2	0	0	0	0	497	822	358	
3	0	0	0	0	496	824	324	
4	0	0	0	0	493	828	346	
5	0	0	0	0	493	834	356	
6	0	0	0	0	494	839	382	
7	0	0	0	0	495	846	396	
8	0	0	0	0	496	852	419	
9	0	0	0	0	496	860	431	
10	0	0	0	0	493	870	444	
11	0	0	0	0	492	880	451	
12	0	0	0	0	492	887	461	
13	0	0	0	0	493	892	460	
14	0	0	0	0	494	895	495	
15	0	0	0	0	495	895	495	
0	0	0	0	0	496	892	521	
1	0	0	0	0	497	889	512	
2	0	0	0	0	496	886	552	
3	0	0	0	0	496	885	552	
4	0	0	0	0	496	885	566	
5	0	0	0	0	494	885	551	
6	0	0	0	0	494	887	536	
7	0	0	0	0	494	889	537	
8	0	0	0	0	493	892	513	
9	0	0	0	0	495	894	487	
10	0	0	0	0	495	894	470	
11	0	0	0	0	497	894	452	
12	0	0	0	0	499	892	456	
13	0	0	0	0	503	889	455	
14	0	0	0	0	505	884	457	
15	0	0	0	0	506	877	455	
0	0	0	0	0	505	867	463	
1	0	0	0	0	508	855	481	
2	0	0	0	0	507	843	496	
3	0	0	0	0	507	830	517	
4	0	0	0	0	506	819	519	
5	0	0	0	0	507	812	522	
6	0	0	0	0	508	807	517	
7	0	0	0	0	508	805	515	
8	0	0	0	0	506	804	523	
9	0	0	0	0	505	803	535	
10	0	0	0	0	504	801	544	
11	0	0	0	0	503	800	546	
12	0	0	0	0	502	799	538	
13	0	0	0	0	500	798	541	
14	0	0	0	0	499	798	544	
15	0	0	0	0	498	799	547	
0	0	0	0	0	499	801	530	
1	0	0	0	0	499	803	525	
2	0	0	0	0	500	803	529	
3	0	0	0	0	500	804	537	
4	0	0	0	0	498	805	547	
5	0	0	0	0	498	807	550	
6	0	0	0	0	498	810	550	
7	0	0	0	0	500	817	546	
8	0	0	0	0	501	824	547	
9	0	0	0	0	501	831	535	
10	0	0	0	0	503	836	504	
11	0	0	0	0	502	842	491	
12	0	0	0	0	500	845	480	
13	0	0	0	0	501	847	484	
14	0	0	0	0	501	847	487	
15	0	0	0	0	498	845	467	
0	0	0	0	0	497	842	498	
1	0	0	0	0	496	839	680	
2	0	0	0	0	496	836	976	
3	0	0	0	0	497	836	1020	
4	0	0	0	0	496	837	719	
5	0	0	0	0	495	838	451	
6	0	0	0	0	494	837	336	
7	0	0	0	0	492	838	319	
8	0	0	0	0	491	838	369	
9	0	0	0	0	487	836	380	
10	0	0	0	0	486	831	399	
11	0	0	0	0	487	823	422	
12	0	0	0	0	488	815	442	
13	0	0	0	0	490	809	469	
14	0	0	0	0	492	805	472	
15	0	0	0	0	494	803	479	
0	0	0	0	0	493	800	476	
1	0	0	0	0	494	794	490	
2	0	0	0	0	495	789	502	
3	0	0	0	0	494	781	527	
4	0	0	0	0	494	772	545	
5	0	0	0	0	493	760	563	
6	0	0	0	0	496	747	567	
7	0	0	0	0	497	733	582	
8	0	0	0	0	498	719	580	
9	0	0	0	0	499	707	567	
10	0	0	0	0	499	695	569	
11	0	0	0	0	499	684	536	
12	0	0	0	0	498	671	525	
13	0	0	0	0	498	658	505	
14	0	0	0	0	499	643	471	
15	0	0	0	0	501	626	471	
0	0	0	0	0	503	608	455	
1	0	0	0	0	505	591	443	
2	0	0	0	0	506	575	449	
3	0	0	0	0	507	560	444	
4	0	0	0	0	508	546	441	
5	0	0	0	0	509	532	459	
6	0	0	0	0	508	520	467	
7	0	0	0	0	508	507	482	
8	0	0	0	0	508	494	486	
9	0	0	0	0	509	480	486	
10	0	0	0	0	510	465	488	
11	0	0	0	0	510	449	500	
12	0	0	0	0	510	432	499	
13	0	0	0	0	510	415	514	
14	0	0	0	0	509	399	518	
15	0	0	0	0	509	382	509	
0	0	0	0	0	505	365	511	
1	0	0	0	0	506	348	505	
2	0	0	0	0	508	330	503	
3	0	0	0	0	509	313	495	
4	0	0	0	0	509	297	499	
5	0	0	0	0	508	284	501	
6	0	0	0	0	507	274	506	
7	0	0	0	0	504	266	511	
8	0	0	0	0	503	260	521	
9	0	0	0	0	501	257	523	
10	0	0	0	0	501	258	530	
11	0	0	0	0	500	258	548	
12	0	0	0	0	501	259	544	
13	0	0	0	0	503	262	519	
14	0	0	0	0	503	267	492	
15	0	0	0	0	503	271	478	
0	0	0	0	0	502	276	477	
1	0	0	0	0	503	281	476	
2	0	0	0	0	504	286	463	
3	0	0	0	0	503	288	452	
4	0	0	0	0	502	291	626	
5	0	0	0	0	502	293	952	
6	0	0	0	0	501	295	1022	
7	0	0	0	0	502	297	775	
8	0	0	0	0	502	297	475	
9	0	0	0	0	503	296	351	
10	0	0	0	0	502	296	346	
11	0	0	0	0	502	297	361	
12	0	0	0	0	502	300	366	
13	0	0	0	0	502	301	392	
14	0	0	0	0	501	304	403	
15	0	0	0	0	499	308	427	
0	0	0	0	0	499	312	440	
1	0	0	0	0	498	319	455	
2	0	0	0	0	497	327	471	
3	0	0	0	0	496	334	478	
4	0	0	0	0	494	339	494	
5	0	0	0	0	491	343	508	
6	0	0	0	0	491	345	545	
7	0	0	0	0	491	345	550	
8	0	0	0	0	490	345	560	
9	0	0	0	0	490	344	581	
10	0	0	0	0	491	341	593	
11	0	0	0	0	491	338	568	
12	0	0	0	0	493	336	551	
13	0	0	0	0	494	332	538	
14	0	0	0	0	495	329	520	
15	0	0	0	0	497	324	516	
0	0	0	0	0	498	319	462	
1	0	0	0	0	501	314	419	
2	0	0	0	0	502	307	412	
3	0	0	0	0	503	300	413	
4	0	0	0	0	502	291	419	
5	0	0	0	0	502	280	410	
6	0	0	0	0	504	267	435	
7	0	0	0	0	507	253	441	
8	0	0	0	0	508	239	443	
9	0	0	0	0	507	228	454	
10	0	0	0	0	509	216	451	
11	0	0	0	0	509	207	453	
12	0	0	0	0	509	197	473	
13	0	0	0	0	509	188	466	
14	0	0	0	0	509	181	466	
15	0	0	0	0	511	174	463	
0	0	0	0	0	512	167	478	
1	0	0	0	0	514	163	487	
2	0	0	0	0	515	159	487	
3	0	0	0	0	515	157	481	
4	0	0	0	0	515	159	487	
5	0	0	0	0	514	161	505	
6	0	0	0	0	514	164	499	
7	0	0	0	0	513	169	515	
8	0	0	0	0	511	175	525	
9	0	0	0	0	510	183	502	
10	0	0	0	0	508	190	511	
11	0	0	0	0	505	199	535	
12	0	0	0	0	504	208	530	
13	0	0	0	0	503	217	566	
14	0	0	0	0	502	224	585	
15	0	0	0	0	500	234	551	
0	0	0	0	0	499	242	534	
1	0	0	0	0	499	250	499	
2	0	0	0	0	500	259	506	
3	0	0	0	0	502	267	466	
4	0	0	0	0	502	276	488	
5	0	0	0	0	502	285	479	
6	0	0	0	0	502	294	491	
7	0	0	0	0	500	302	696	
8	0	0	0	0	500	311	995	
9	0	0	0	0	501	319	1022	
10	0	0	0	0	503	326	723	
11	0	0	0	0	504	332	471	
12	0	0	0	0	504	336	359	
13	0	0	0	0	504	342	366	
14	0	0	0	0	503	348	375	
15	0	0	0	0	503	355	380	
0	0	0	0	0	502	358	382	
1	0	0	0	0	502	361	424	
2	0	0	0	0	502	364	431	
3	0	0	0	0	503	366	456	
4	0	0	0	0	503	369	466	
5	0	0	0	0	502	371	483	
6	0	0	0	0	500	372	495	
7	0	0	0	0	498	373	491	
8	0	0	0	0	499	374	504	
9	0	0	0	0	497	374	530	
10	0	0	0	0	498	374	535	
11	0	0	0	0	497	373	584	
12	0	0	0	0	495	371	584	
13	0	0	0	0	496	370	585	
14	0	0	0	0	496	368	572	
15	0	0	0	0	492	368	570	
0	0	0	0	0	488	369	564	
1	0	0	0	0	487	370	549	
2	0	0	0	0	488	372	505	
3	0	0	0	0	489	375	483	
4	0	0	0	0	490	379	480	
5	0	0	0	0	492	382	477	
6	0	0	0	0	494	385	470	
7	0	0	0	0	498	387	461	
8	0	0	0	0	504	388	463	
9	0	0	0	0	505	389	472	
10	0	0	0	0	508	391	476	
11	0	0	0	0	512	391	484	
12	0	0	0	0	516	392	495	
13	0	0	0	0	517	393	512	
14	0	0	0	0	518	395	517	
15	0	0	0	0	518	397	521	
0	0	0	0	0	516	400	542	
1	0	0	0	0	516	403	537	
2	0	0	0	0	515	407	544	
3	0	0	0	0	515	412	541	
4	0	0	0	0	513	415	541	
5	0	0	0	0	512	419	531	
6	0	0	0	0	510	423	534	
7	0	0	0	0	507	427	545	
8	0	0	0	0	506	430	541	
9	0	0	0	0	507	432	525	
10	0	0	0	0	507	435	517	
11	0	0	0	0	507	438	509	
12	0	0	0	0	506	441	523	
13	0	0	0	0	505	444	534	
14	0	0	0	0	505	447	525	
15	0	0	0	0	505	450	548	
0	0	0	0	0	505	453	569	
1	0	0	0	0	505	455	551	
2	0	0	0	0	504	455	522	
3	0	0	0	0	505	454	487	
4	0	0	0	0	504	450	496	
5	0	0	0	0	504	445	484	
6	0	0	0	0	503	440	488	
7	0	0	0	0	503	434	464	
8	0	0	0	0	502	428	476	
9	0	0	0	0	502	421	649	
10	0	0	0	0	500	414	930	
11	0	0	0	0	498	406	994	
12	0	0	0	0	497	398	709	
13	0	0	0	0	497	389	442	
14	0	0	0	0	496	378	282	
15	0	0	0	0	497	368	261	
0	0	0	0	0	498	355	252	
1	0	0	0	0	498	343	260	
2	0	0	0	0	498	328	259	
3	0	0	0	0	497	315	247	
4	0	0	0	0	498	305	293	
5	0	0	0	0	498	299	307	
6	0	0	0	0	499	295	322	
7	0	0	0	0	499	293	339	
8	0	0	0	0	497	289	372	
9	0	0	0	0	495	279	391	
10	0	0	0	0	496	267	415	
11	0	0	0	0	496	253	443	
12	0	0	0	0	495	241	475	
13	0	0	0	0	495	229	486	
14	0	0	0	0	496	219	532	
15	0	0	0	0	498	210	540	
0	0	0	0	0	499	204	534	
1	0	0	0	0	498	200	539	
2	0	0	0	0	498	199	531	
3	0	0	0	0	499	201	511	
4	0	0	0	0	499	204	494	
5	0	0	0	0	499	210	478	
6	0	0	0	0	502	216	467	
7	0	0	0	0	504	221	455	
8	0	0	0	0	504	226	458	
9	0	0	0	0	504	233	458	
10	0	0	0	0	506	237	455	
11	0	0	0	0	508	242	453	
12	0	0	0	0	511	247	470	
13	0	0	0	0	512	254	505	
14	0	0	0	0	514	262	506	
15	0	0	0	0	513	270	531	
0	0	0	0	0	513	279	528	
1	0	0	0	0	513	287	531	
2	0	0	0	0	511	296	555	
3	0	0	0	0	509	305	545	
4	0	0	0	0	507	314	551	
5	0	0	0	0	506	322	555	
6	0	0	0	0	504	330	555	
7	0	0	0	0	502	337	562	
8	0	0	0	0	499	343	565	
9	0	0	0	0	500	350	567	
10	0	0	0	0	502	359	580	
11	0	0	0	0	502	367	584	
12	0	0	0	0	502	377	585	
13	0	0	0	0	503	386	571	
14	0	0	0	0	504	396	608	
15	0	0	0	0	505	408	626	
0	0	0	0	0	503	419	625	
1	0	0	0	0	502	430	575	
2	0	0	0	0	501	442	581	
3	0	0	0	0	500	454	551	
4	0	0	0	0	500	465	548	
5	0	0	0	0	502	476	529	
6	0	0	0	0	502	485	511	
7	0	0	0	0	500	493	482	
8	0	0	0	0	500	501	604	
9	0	0	0	0	499	509	852	
10	0	0	0	0	499	516	977	
11	0	0	0	0	499	523	797	
12	0	0	0	0	497	530	597	
13	0	0	0	0	496	536	426	
14	0	0	0	0	496	540	380	
15	0	0	0	0	499	546	401	
0	0	0	0	0	499	552	393	
1	0	0	0	0	499	562	435	
2	0	0	0	0	501	572	439	
3	0	0	0	0	501	582	453	
4	0	0	0	0	500	591	455	
5	0	0	0	0	500	600	448	
6	0	0	0	0	500	609	460	
7	0	0	0	0	500	615	479	
8	0	0	0	0	500	617	486	
9	0	0	0	0	499	620	497	
10	0	0	0	0	499	622	529	
11	0	0	0	0	498	624	525	
12	0	0	0	0	497	627	557	
13	0	0	0	0	497	630	555	
14	0	0	0	0	496	632	565	
15	0	0	0	0	496	635	554	
0	0	0	0	0	497	638	542	
1	0	0	0	0	496	641	543	
2	0	0	0	0	494	645	528	
3	0	0	0	0	495	649	516	
4	0	0	0	0	497	654	471	
5	0	0	0	0	499	657	479	
6	0	0	0	0	501	661	464	
7	0	0	0	0	503	664	465	
8	0	0	0	0	505	667	458	
9	0	0	0	0	506	667	480	
10	0	0	0	0	507	666	470	
11	0	0	0	0	507	666	479	
12	0	0	0	0	506	667	487	
13	0	0	0	0	504	668	489	
14	0	0	0	0	505	668	496	
15	0	0	0	0	506	667	502	
0	0	0	0	0	506	668	516	
1	0	0	0	0	505	671	511	
2	0	0	0	0	501	675	518	
3	0	0	0	0	499	680	520	
4	0	0	0	0	496	684	513	
5	0	0	0	0	495	687	532	
6	0	0	0	0	495	691	531	
7	0	0	0	0	497	695	525	
8	0	0	0	0	499	699	521	
9	0	0	0	0	501	705	522	
10	0	0	0	0	502	712	543	
11	0	0	0	0	502	719	543	
12	0	0	0	0	503	727	571	
13	0	0	0	0	504	735	552	
14	0	0	0	0	506	743	543	
15	0	0	0	0	508	751	495	
0	0	0	0	0	508	760	464	
1	0	0	0	0	509	767	478	
2	0	0	0	0	508	772	474	
3	0	0	0	0	506	776	456	
4	0	0	0	0	505	780	453	
5	0	0	0	0	505	786	568	
6	0	0	0	0	504	796	806	
7	0	0	0	0	502	806	914	
8	0	0	0	0	504	819	744	
9	0	0	0	0	502	830	543	
10	0	0	0	0	499	839	369	
11	0	0	0	0	497	844	328	
12	0	0	0	0	496	848	346	
13	0	0	0	0	495	853	375	
14	0	0	0	0	493	862	385	
15	0	0	0	0	493	871	435	
0	0	0	0	0	493	881	431	
1	0	0	0	0	492	891	428	
2	0	0	0	0	493	899	418	
3	0	0	0	0	494	907	388	
4	0	0	0	0	496	913	399	
5	0	0	0	0	497	917	461	
6	0	0	0	0	499	920	518	
7	0	0	0	0	500	921	558	
8	0	0	0	0	501	921	597	
9	0	0	0	0	498	922	626	
10	0	0	0	0	496	925	640	
11	0	0	0	0	495	930	642	
12	0	0	0	0	496	935	636	
13	0	0	0	0	495	941	620	
14	0	0	0	0	496	946	620	
15	0	0	0	0	499	951	591	
0	0	0	0	0	497	956	560	
1	0	0	0	0	498	960	519	
2	0	0	0	0	500	964	500	
3	0	0	0	0	501	967	488	
4	0	0	0	0	502	968	480	
5	0	0	0	0	502	968	459	
6	0	0	0	0	504	965	467	
7	0	0	0	0	506	958	457	
8	0	0	0	0	507	951	465	
9	0	0	0	0	508	940	455	
10	0	0	0	0	508	927	465	
11	0	0	0	0	509	911	463	
12	0	0	0	0	512	895	485	
13	0	0	0	0	513	880	504	
14	0	0	0	0	515	869	509	
15	0	0	0	0	515	862	515	
0	0	0	0	0	515	858	514	
1	0	0	0	0	514	855	501	
2	0	0	0	0	513	852	514	
3	0	0	0	0	513	851	517	
4	0	0	0	0	513	848	519	
5	0	0	0	0	511	846	511	
6	0	0	0	0	510	843	537	
7	0	0	0	0	509	840	549	
8	0	0	0	0	508	839	548	
9	0	0	0	0	507	837	555	
10	0	0	0	0	505	835	569	
11	0	0	0	0	504	833	565	
12	0	0	0	0	502	832	532	
13	0	0	0	0	501	831	485	
14	0	0	0	0	500	833	431	
15	0	0	0	0	499	835	450	
0	0	0	0	0	498	840	441	
1	0	0	0	0	500	843	427	
2	0	0	0	0	502	844	433	
3	0	0	0	0	503	844	543	
4	0	0	0	0	504	842	825	
5	0	0	0	0	504	839	967	
6	0	0	0	0	505	835	734	
7	0	0	0	0	504	832	462	
8	0	0	0	0	503	825	311	
9	0	0	0	0	503	819	309	
10	0	0	0	0	502	815	342	
11	0	0	0	0	500	814	374	
12	0	0	0	0	500	811	396	
13	0	0	0	0	502	809	401	
14	0	0	0	0	503	807	419	
15	0	0	0	0	500	806	440	
0	0	0	0	0	502	807	447	
1	0	0	0	0	502	809	489	
2	0	0	0	0	503	807	510	
3	0	0	0	0	504	803	507	
4	0	0	0	0	505	795	533	
5	0	0	0	0	507	786	540	
6	0	0	0	0	507	776	563	
7	0	0	0	0	506	766	568	
8	0	0	0	0	507	758	580	
9	0	0	0	0	506	750	570	
10	0	0	0	0	503	744	566	
11	0	0	0	0	502	739	553	
12	0	0	0	0	501	736	529	
13	0	0	0	0	500	733	532	
14	0	0	0	0	499	732	501	
15	0	0	0	0	500	730	465	
0	0	0	0	0	501	728	483	
1	0	0	0	0	502	726	459	
2	0	0	0	0	504	723	479	
3	0	0	0	0	506	721	478	
4	0	0	0	0	508	718	479	
5	0	0	0	0	511	713	475	
6	0	0	0	0	512	707	487	
7	0	0	0	0	513	701	493	
8	0	0	0	0	516	695	498	
9	0	0	0	0	516	691	499	
10	0	0	0	0	515	689	512	
11	0	0	0	0	515	686	496	
12	0	0	0	0	515	684	527	
13	0	0	0	0	515	680	529	
14	0	0	0	0	513	679	525	
15	0	0	0	0	514	677	528	
0	0	0	0	0	515	676	534	
1	0	0	0	0	514	675	519	
2	0	0	0	0	511	675	536	
3	0	0	0	0	512	675	533	
4	0	0	0	0	512	674	536	
5	0	0	0	0	512	673	566	
6	0	0	0	0	513	671	567	
7	0	0	0	0	513	668	577	
8	0	0	0	0	513	665	566	
9	0	0	0	0	512	659	559	
10	0	0	0	0	511	653	515	
11	0	0	0	0	511	645	488	
12	0	0	0	0	511	636	459	
13	0	0	0	0	511	627	463	
14	0	0	0	0	509	616	467	
15	0	0	0	0	507	605	456	
0	0	0	0	0	507	596	497	
1	0	0	0	0	506	589	695	
2	0	0	0	0	507	583	975	
3	0	0	0	0	508	580	987	
4	0	0	0	0	508	579	673	
5	0	0	0	0	508	579	433	
6	0	0	0	0	509	575	319	
7	0	0	0	0	509	572	341	
8	0	0	0	0	509	569	362	
9	0	0	0	0	509	568	380	
10	0	0	0	0	511	562	395	
11	0	0	0	0	510	555	395	
12	0	0	0	0	508	546	447	
13	0	0	0	0	506	538	452	
14	0	0	0	0	506	531	461	
15	0	0	0	0	507	524	460	
0	0	0	0	0	505	516	486	
1	0	0	0	0	505	505	479	
2	0	0	0	0	506	492	489	
3	0	0	0	0	505	480	478	
4	0	0	0	0	504	467	508	
5	0	0	0	0	502	455	503	
6	0	0	0	0	502	444	506	
7	0	0	0	0	501	434	534	
8	0	0	0	0	500	426	521	
9	0	0	0	0	500	419	538	
10	0	0	0	0	500	414	538	
11	0	0	0	0	499	409	526	
12	0	0	0	0	499	406	514	
13	0	0	0	0	500	401	460	
14	0	0	0	0	502	397	437	
15	0	0	0	0	504	391	439	
0	0	0	0	0	505	387	460	
1	0	0	0	0	507	380	449	
2	0	0	0	0	510	373	445	
3	0	0	0	0	515	367	453	
4	0	0	0	0	516	361	467	
5	0	0	0	0	517	358	467	
6	0	0	0	0	519	355	474	
7	0	0	0	0	522	355	468	
8	0	0	0	0	524	356	473	
9	0	0	0	0	525	356	478	
10	0	0	0	0	524	358	471	
11	0	0	0	0	524	360	473	
12	0	0	0	0	523	364	476	
13	0	0	0	0	523	369	484	
14	0	0	0	0	521	376	504	
15	0	0	0	0	520	383	519	
0	0	0	0	0	520	391	517	
1	0	0	0	0	519	398	533	
2	0	0	0	0	520	403	535	
3	0	0	0	0	518	408	556	
4	0	0	0	0	516	412	536	
5	0	0	0	0	516	416	557	
6	0	0	0	0	515	419	560	
7	0	0	0	0	515	421	594	
8	0	0	0	0	514	424	597	
9	0	0	0	0	513	426	559	
10	0	0	0	0	513	428	526	
11	0	0	0	0	511	431	514	
12	0	0	0	0	506	435	522	
13	0	0	0	0	503	441	515	
14	0	0	0	0	504	449	483	
15	0	0	0	0	506	459	561	
0	0	0	0	0	508	470	804	
1	0	0	0	0	510	481	1022	
2	0	0	0	0	511	492	943	
3	0	0	0	0	511	502	629	
4	0	0	0	0	509	510	424	
5	0	0	0	0	508	514	372	
6	0	0	0	0	508	520	371	
7	0	0	0	0	507	527	382	
8	0	0	0	0	508	534	375	
9	0	0	0	0	509	537	417	
10	0	0	0	0	508	538	434	
11	0	0	0	0	510	538	446	
12	0	0	0	0	509	540	465	
13	0	0	0	0	508	544	468	
14	0	0	0	0	509	550	487	
15	0	0	0	0	509	555	487	
0	0	0	0	0	509	559	493	
1	0	0	0	0	510	561	502	
2	0	0	0	0	511	563	519	
3	0	0	0	0	511	565	527	
4	0	0	0	0	511	565	525	
5	0	0	0	0	509	566	546	
6	0	0	0	0	508	567	546	
7	0	0	0	0	507	568	543	
8	0	0	0	0	507	569	537	
9	0	0	0	0	507	571	526	
10	0	0	0	0	507	572	515	
11	0	0	0	0	507	573	496	
12	0	0	0	0	508	574	477	
13	0	0	0	0	510	574	460	
14	0	0	0	0	509	574	450	
15	0	0	0	0	510	572	472	
0	0	0	0	0	511	569	469	
1	0	0	0	0	512	563	472	
2	0	0	0	0	512	558	458	
3	0	0	0	0	515	551	494	
4	0	0	0	0	517	544	496	
5	0	0	0	0	519	538	477	
6	0	0	0	0	521	534	481	
7	0	0	0	0	523	530	483	
8	0	0	0	0	523	525	497	
9	0	0	0	0	523	520	500	
10	0	0	0	0	522	514	527	
11	0	0	0	0	523	507	489	
12	0	0	0	0	521	499	504	
13	0	0	0	0	519	490	499	
14	0	0	0	0	520	480	502	
15	0	0	0	0	520	469	504	
0	0	0	0	0	522	459	509	
1	0	0	0	0	521	447	506	
2	0	0	0	0	520	436	504	
3	0	0	0	0	521	427	516	
4	0	0	0	0	519	418	526	
5	0	0	0	0	519	410	524	
6	0	0	0	0	519	402	543	
7	0	0	0	0	517	395	547	
8	0	0	0	0	517	387	538	
9	0	0	0	0	516	379	468	
10	0	0	0	0	514	371	474	
11	0	0	0	0	513	364	478	
12	0	0	0	0	511	355	454	
13	0	0	0	0	511	347	466	
14	0	0	0	0	511	339	440	
15	0	0	0	0	511	331	548	
0	0	0	0	0	513	323	833	
1	0	0	0	0	514	315	1022	
2	0	0	0	0	513	306	831	
3	0	0	0	0	514	298	526	
4	0	0	0	0	515	287	361	
5	0	0	0	0	514	279	330	
6	0	0	0	0	512	270	343	
7	0	0	0	0	509	263	354	
8	0	0	0	0	506	255	378	
9	0	0	0	0	505	248	393	
10	0	0	0	0	504	243	413	
11	0	0	0	0	502	240	431	
12	0	0	0	0	499	240	445	
13	0	0	0	0	501	242	454	
14	0	0	0	0	502	244	470	
15	0	0	0	0	504	243	489	
0	0	0	0	0	504	239	505	
1	0	0	0	0	504	228	523	
2	0	0	0	0	506	214	545	
3	0	0	0	0	505	201	544	
4	0	0	0	0	505	187	535	
5	0	0	0	0	507	175	546	
6	0	0	0	0	508	164	539	
7	0	0	0	0	506	153	537	
8	0	0	0	0	505	145	540	
9	0	0	0	0	505	139	522	
10	0	0	0	0	506	134	501	
11	0	0	0	0	509	127	480	
12	0	0	0	0	512	122	458	
13	0	0	0	0	517	114	467	
14	0	0	0	0	521	109	466	
15	0	0	0	0	524	102	453	
0	0	0	0	0	527	97	452	
1	0	0	0	0	527	92	469	
2	0	0	0	0	526	89	464	
3	0	0	0	0	525	86	468	
4	0	0	0	0	523	85	473	
5	0	0	0	0	521	85	475	
6	0	0	0	0	521	89	486	
7	0	0	0	0	521	92	477	
8	0	0	0	0	523	95	503	
9	0	0	0	0	523	99	488	
10	0	0	0	0	523	103	516	
11	0	0	0	0	523	107	516	
12	0	0	0	0	524	108	513	
13	0	0	0	0	523	111	517	
14	0	0	0	0	522	114	507	
15	0	0	0	0	522	116	486	
0	0	0	0	0	522	121	491	
1	0	0	0	0	521	128	480	
2	0	0	0	0	519	134	502	
3	0	0	0	0	519	140	507	
4	0	0	0	0	519	148	521	
5	0	0	0	0	518	154	564	
6	0	0	0	0	517	160	561	
7	0	0	0	0	516	167	561	
8	0	0	0	0	517	174	533	
9	0	0	0	0	515	181	510	
10	0	0	0	0	514	187	508	
11	0	0	0	0	514	194	511	
12	0	0	0	0	513	199	498	
13	0	0	0	0	511	203	469	
14	0	0	0	0	512	206	590	
15	0	0	0	0	512	210	827	
0	0	0	0	0	511	214	962	
1	0	0	0	0	511	220	812	
2	0	0	0	0	510	226	596	
3	0	0	0	0	511	234	420	
4	0	0	0	0	511	240	350	
5	0	0	0	0	513	248	354	
6	0	0	0	0	513	258	376	
7	0	0	0	0	512	269	386	
8	0	0	0	0	510	281	407	
9	0	0	0	0	509	291	425	
10	0	0	0	0	508	301	427	
11	0	0	0	0	505	312	444	
12	0	0	0	0	504	323	457	
13	0	0	0	0	504	332	455	
14	0	0	0	0	501	339	476	
15	0	0	0	0	502	345	501	
0	0	0	0	0	501	352	522	
1	0	0	0	0	499	359	507	
2	0	0	0	0	500	365	524	
3	0	0	0	0	502	372	540	
4	0	0	0	0	504	380	546	
5	0	0	0	0	506	388	537	
6	0	0	0	0	507	397	547	
7	0	0	0	0	508	407	519	
8	0	0	0	0	509	416	500	
9	0	0	0	0	509	427	508	
10	0	0	0	0	510	438	486	
11	0	0	0	0	513	450	463	
12	0	0	0	0	514	463	455	
13	0	0	0	0	515	477	442	
14	0	0	0	0	517	491	447	
15	0	0	0	0	518	503	454	
0	0	0	0	0	519	516	464	
1	0	0	0	0	521	531	461	
2	0	0	0	0	522	547	472	
3	0	0	0	0	523	565	483	
4	0	0	0	0	523	581	493	
5	0	0	0	0	523	597	508	
6	0	0	0	0	522	613	520	
7	0	0	0	0	520	631	519	
8	0	0	0	0	522	648	524	
9	0	0	0	0	521	667	521	
10	0	0	0	0	521	684	513	
11	0	0	0	0	521	700	510	
12	0	0	0	0	519	715	502	
13	0	0	0	0	518	728	507	
14	0	0	0	0	517	740	507	
15	0	0	0	0	519	751	511	
0	0	0	0	0	520	762	533	
1	0	0	0	0	520	773	558	
2	0	0	0	0	520	782	579	
3	0	0	0	0	519	791	593	
4	0	0	0	0	519	800	567	
5	0	0	0	0	519	808	537	
6	0	0	0	0	519	817	503	
7	0	0	0	0	517	825	484	
8	0	0	0	0	516	831	489	
9	0	0	0	0	514	838	481	
10	0	0	0	0	512	842	453	
11	0	0	0	0	510	845	496	
12	0	0	0	0	510	847	720	
13	0	0	0	0	509	847	958	
14	0	0	0	0	507	849	956	
15	0	0	0	0	507	851	711	
0	0	0	0	0	507	852	470	
1	0	0	0	0	506	851	349	
2	0	0	0	0	505	847	356	
3	0	0	0	0	504	845	365	
4	0	0	0	0	503	845	386	
5	0	0	0	0	499	847	404	
6	0	0	0	0	496	850	421	
7	0	0	0	0	496	853	451	
8	0	0	0	0	496	858	449	
9	0	0	0	0	496	864	449	
10	0	0	0	0	497	868	471	
11	0	0	0	0	500	869	478	
12	0	0	0	0	502	868	487	
13	0	0	0	0	504	864	491	
14	0	0	0	0	504	858	503	
15	0	0	0	0	507	852	523	
0	0	0	0	0	508	845	521	
1	0	0	0	0	509	841	564	
2	0	0	0	0	510	837	559	
3	0	0	0	0	509	833	561	
4	0	0	0	0	507	832	551	
5	0	0	0	0	505	831	551	
6	0	0	0	0	505	831	529	
7	0	0	0	0	505	829	501	
8	0	0	0	0	508	827	486	
9	0	0	0	0	510	824	487	
10	0	0	0	0	512	820	475	
11	0	0	0	0	515	815	489	
12	0	0	0	0	518	809	479	
13	0	0	0	0	519	798	492	
14	0	0	0	0	519	785	492	
15	0	0	0	0	518	772	488	
0	0	0	0	0	520	761	492	
1	0	0	0	0	519	750	483	
2	0	0	0	0	518	742	498	
3	0	0	0	0	519	737	521	
4	0	0	0	0	521	735	542	
5	0	0	0	0	521	736	535	
6	0	0	0	0	521	738	528	
7	0	0	0	0	520	739	531	
8	0	0	0	0	519	738	523	
9	0	0	0	0	519	732	531	
10	0	0	0	0	520	724	513	
11	0	0	0	0	522	718	520	
12	0	0	0	0	523	711	513	
13	0	0	0	0	523	708	511	
14	0	0	0	0	524	706	527	
15	0	0	0	0	523	704	530	
0	0	0	0	0	521	702	537	
1	0	0	0	0	521	696	564	
2	0	0	0	0	519	688	584	
3	0	0	0	0	518	674	595	
4	0	0	0	0	519	658	583	
5	0	0	0	0	517	643	530	
6	0	0	0	0	517	629	495	
7	0	0	0	0	516	616	470	
8	0	0	0	0	515	607	467	
9	0	0	0	0	515	600	447	
10	0	0	0	0	515	595	452	
11	0	0	0	0	515	591	627	
12	0	0	0	0	516	585	920	
13	0	0	0	0	516	579	1022	
14	0	0	0	0	518	572	807	
15	0	0	0	0	518	563	540	
0	0	0	0	0	518	554	381	
1	0	0	0	0	517	545	344	
2	0	0	0	0	516	539	348	
3	0	0	0	0	515	537	346	
4	0	0	0	0	514	535	369	
5	0	0	0	0	512	534	389	
6	0	0	0	0	510	536	391	
7	0	0	0	0	509	538	445	
8	0	0	0	0	509	544	459	
9	0	0	0	0	507	550	484	
10	0	0	0	0	504	555	502	
11	0	0	0	0	502	558	502	
12	0	0	0	0	502	560	511	
13	0	0	0	0	502	562	504	
14	0	0	0	0	502	564	514	
15	0	0	0	0	503	568	529	
0	0	0	0	0	503	574	545	
1	0	0	0	0	504	582	545	
2	0	0	0	0	504	592	551	
3	0	0	0	0	507	602	563	
4	0	0	0	0	510	611	546	
5	0	0	0	0	512	618	541	
6	0	0	0	0	513	623	523	
7	0	0	0	0	513	627	498	
8	0	0	0	0	515	631	473	
9	0	0	0	0	518	638	467	
10	0	0	0	0	519	646	455	
11	0	0	0	0	521	656	451	
12	0	0	0	0	524	664	446	
13	0	0	0	0	526	669	476	
14	0	0	0	0	525	672	478	
15	0	0	0	0	526	675	482	
0	0	0	0	0	529	679	491	
1	0	0	0	0	528	685	480	
2	0	0	0	0	525	691	488	
3	0	0	0	0	525	698	497	
4	0	0	0	0	526	705	496	
5	0	0	0	0	526	712	499	
6	0	0	0	0	527	718	518	
7	0	0	0	0	529	723	499	
8	0	0	0	0	530	728	515	
9	0	0	0	0	532	731	508	
10	0	0	0	0	531	733	512	
11	0	0	0	0	531	735	501	
12	0	0	0	0	531	736	505	
13	0	0	0	0	532	738	491	
14	0	0	0	0	528	740	507	
15	0	0	0	0	527	741	514	
0	0	0	0	0	527	742	518	
1	0	0	0	0	527	743	531	
2	0	0	0	0	527	743	561	
3	0	0	0	0	528	743	546	
4	0	0	0	0	527	742	526	
5	0	0	0	0	526	742	494	
6	0	0	0	0	525	742	469	
7	0	0	0	0	524	741	459	
8	0	0	0	0	523	740	473	
9	0	0	0	0	522	738	455	
10	0	0	0	0	520	736	463	
11	0	0	0	0	519	733	653	
12	0	0	0	0	518	730	952	
13	0	0	0	0	520	727	1022	
14	0	0	0	0	522	724	750	
15	0	0	0	0	522	720	471	
0	0	0	0	0	523	715	350	
1	0	0	0	0	521	711	324	
2	0	0	0	0	520	708	332	
3	0	0	0	0	519	709	348	
4	0	0	0	0	519	707	378	
5	0	0	0	0	517	704	396	
6	0	0	0	0	518	698	408	
7	0	0	0	0	517	692	428	
8	0	0	0	0	517	688	450	
9	0	0	0	0	516	688	476	
10	0	0	0	0	515	686	473	
11	0	0	0	0	514	684	487	
12	0	0	0	0	513	682	506	
13	0	0	0	0	511	679	502	
14	0	0	0	0	510	675	515	
15	0	0	0	0	508	671	539	
0	0	0	0	0	506	666	552	
1	0	0	0	0	504	662	551	
2	0	0	0	0	506	658	559	
3	0	0	0	0	508	654	556	
4	0	0	0	0	510	652	552	
5	0	0	0	0	511	648	540	
6	0	0	0	0	511	646	519	
7	0	0	0	0	513	643	494	
8	0	0	0	0	514	640	485	
9	0	0	0	0	519	639	462	
10	0	0	0	0	520	639	465	
11	0	0	0	0	519	640	472	
12	0	0	0	0	520	641	476	
13	0	0	0	0	521	642	472	
14	0	0	0	0	521	643	492	
15	0	0	0	0	522	643	494	
0	0	0	0	0	523	644	522	
1	0	0	0	0	523	644	516	
2	0	0	0	0	524	644	522	
3	0	0	0	0	526	646	534	
4	0	0	0	0	528	647	530	
5	0	0	0	0	529	651	522	
6	0	0	0	0	529	654	518	
7	0	0	0	0	528	657	516	
8	0	0	0	0	528	660	515	
9	0	0	0	0	530	662	517	
10	0	0	0	0	531	663	511	
11	0	0	0	0	532	662	511	
12	0	0	0	0	534	660	518	
13	0	0	0	0	534	658	523	
14	0	0	0	0	532	655	531	
15	0	0	0	0	531	651	543	
0	0	0	0	0	531	647	533	
1	0	0	0	0	529	641	536	
2	0	0	0	0	529	634	543	
3	0	0	0	0	528	625	570	
4	0	0	0	0	529	615	551	
5	0	0	0	0	529	604	538	
6	0	0	0	0	528	589	511	
7	0	0	0	0	526	572	479	
8	0	0	0	0	526	551	472	
9	0	0	0	0	526	529	482	
10	0	0	0	0	525	504	477	
11	0	0	0	0	524	478	456	
12	0	0	0	0	521	452	604	
13	0	0	0	0	519	429	894	
14	0	0	0	0	519	409	1022	
15	0	0	0	0	519	392	814	
0	0	0	0	0	519	378	523	
1	0	0	0	0	522	365	369	
2	0	0	0	0	521	353	334	
3	0	0	0	0	519	345	353	
4	0	0	0	0	519	339	364	
5	0	0	0	0	518	334	377	
6	0	0	0	0	517	326	403	
7	0	0	0	0	515	318	411	
8	0	0	0	0	513	310	430	
9	0	0	0	0	511	304	443	
10	0	0	0	0	510	300	448	
11	0	0	0	0	510	297	451	
12	0	0	0	0	512	294	471	
13	0	0	0	0	511	289	487	
14	0	0	0	0	510	285	504	
15	0	0	0	0	508	280	523	
0	0	0	0	0	508	273	531	
1	0	0	0	0	507	269	540	
2	0	0	0	0	507	264	550	
3	0	0	0	0	506	262	555	
4	0	0	0	0	507	262	559	
5	0	0	0	0	509	264	549	
6	0	0	0	0	509	269	531	
7	0	0	0	0	511	276	507	
8	0	0	0	0	513	287	489	
9	0	0	0	0	515	300	464	
10	0	0	0	0	517	315	453	
11	0	0	0	0	520	331	451	
12	0	0	0	0	522	347	453	
13	0	0	0	0	525	363	453	
14	0	0	0	0	527	377	455	
15	0	0	0	0	530	393	460	
