# OpenSignals Text File Format. Version 1
# {"84:BA:20:AE:BC:92": {"position": 0, "device": "bitalino_rev", "device name": "84:BA:20:AE:BC:92", "device connection": "BTH84:BA:20:AE:BC:92", "sampling rate": 100, "resolution": [4, 1, 1, 1, 1, 10, 10, 10], "firmware version": 1282, "comments": "", "keywords": "", "mode": 0, "sync interval": 2, "date": "2025-10-22", "time": "11:25:7.371", "channels": [2, 3, 4], "sensor": ["RAW", "RESPBIT", "ECGBIT"], "label": ["A2", "A3", "A4"], "column": ["nSeq", "I1", "I2", "O1", "O2", "A2", "A3", "A4"], "special": [{}, {}, {}], "digital IO": [0, 0, 1, 1], "convertedValues": 1}}
# EndOfHeader
0.0	0.0	0.0	0.0	0.0	502.0	0.348	0.434	
1.0	0.0	0.0	0.0	0.0	501.0	0.351	0.088	
2.0	0.0	0.0	0.0	0.0	499.0	0.354	-0.085	
3.0	0.0	0.0	0.0	0.0	497.0	0.351	-0.038	
4.0	0.0	0.0	0.0	0.0	496.0	0.332	-0.003	
5.0	0.0	0.0	0.0	0.0	495.0	0.306	-0.003	
6.0	0.0	0.0	0.0	0.0	495.0	0.274	-0.047	
7.0	0.0	0.0	0.0	0.0	495.0	0.235	0.047	
8.0	0.0	0.0	0.0	0.0	496.0	0.197	-0.038	
9.0	0.0	0.0	0.0	0.0	496.0	0.155	-0.144	
10.0	0.0	0.0	0.0	0.0	494.0	0.106	-0.12	
11.0	0.0	0.0	0.0	0.0	493.0	0.052	-0.135	
12.0	0.0	0.0	0.0	0.0	492.0	-0.003	-0.155	
13.0	0.0	0.0	0.0	0.0	492.0	-0.058	-0.105	
14.0	0.0	0.0	0.0	0.0	492.0	-0.11	-0.132	
15.0	0.0	0.0	0.0	0.0	494.0	-0.158	-0.07	
0.0	0.0	0.0	0.0	0.0	494.0	-0.206	-0.149	
1.0	0.0	0.0	0.0	0.0	495.0	-0.251	-0.003	
2.0	0.0	0.0	0.0	0.0	495.0	-0.296	0.064	
3.0	0.0	0.0	0.0	0.0	495.0	-0.338	0.044	
4.0	0.0	0.0	0.0	0.0	497.0	-0.38	0.07	
5.0	0.0	0.0	0.0	0.0	499.0	-0.416	0.1	
6.0	0.0	0.0	0.0	0.0	500.0	-0.438	0.015	
7.0	0.0	0.0	0.0	0.0	502.0	-0.458	-0.006	
8.0	0.0	0.0	0.0	0.0	506.0	-0.464	-0.108	
9.0	0.0	0.0	0.0	0.0	508.0	-0.461	-0.182	
10.0	0.0	0.0	0.0	0.0	511.0	-0.442	-0.214	
11.0	0.0	0.0	0.0	0.0	513.0	-0.422	-0.111	
12.0	0.0	0.0	0.0	0.0	514.0	-0.396	-0.009	
13.0	0.0	0.0	0.0	0.0	514.0	-0.367	-0.021	
14.0	0.0	0.0	0.0	0.0	515.0	-0.338	0.021	
15.0	0.0	0.0	0.0	0.0	514.0	-0.3	0.035	
0.0	0.0	0.0	0.0	0.0	515.0	-0.255	-0.141	
1.0	0.0	0.0	0.0	0.0	516.0	-0.197	-0.138	
2.0	0.0	0.0	0.0	0.0	517.0	-0.135	-0.196	
3.0	0.0	0.0	0.0	0.0	518.0	-0.071	-0.123	
4.0	0.0	0.0	0.0	0.0	519.0	-0.006	-0.144	
5.0	0.0	0.0	0.0	0.0	520.0	0.048	-0.029	
6.0	0.0	0.0	0.0	0.0	519.0	0.106	0.021	
7.0	0.0	0.0	0.0	0.0	516.0	0.168	0.041	
8.0	0.0	0.0	0.0	0.0	514.0	0.232	0.021	
9.0	0.0	0.0	0.0	0.0	511.0	0.29	0.094	
10.0	0.0	0.0	0.0	0.0	511.0	0.345	0.044	
11.0	0.0	0.0	0.0	0.0	509.0	0.393	0.064	
12.0	0.0	0.0	0.0	0.0	507.0	0.435	-0.021	
13.0	0.0	0.0	0.0	0.0	507.0	0.471	0.097	
14.0	0.0	0.0	0.0	0.0	509.0	0.503	-0.076	
15.0	0.0	0.0	0.0	0.0	509.0	0.529	-0.199	
0.0	0.0	0.0	0.0	0.0	506.0	0.561	-0.155	
1.0	0.0	0.0	0.0	0.0	504.0	0.587	-0.158	
2.0	0.0	0.0	0.0	0.0	504.0	0.619	-0.138	
3.0	0.0	0.0	0.0	0.0	503.0	0.657	-0.138	
4.0	0.0	0.0	0.0	0.0	502.0	0.699	-0.398	
5.0	0.0	0.0	0.0	0.0	500.0	0.738	-0.604	
6.0	0.0	0.0	0.0	0.0	498.0	0.78	-0.46	
7.0	0.0	0.0	0.0	0.0	497.0	0.815	0.196	
8.0	0.0	0.0	0.0	0.0	497.0	0.851	0.369	
9.0	0.0	0.0	0.0	0.0	496.0	0.88	-0.059	
10.0	0.0	0.0	0.0	0.0	496.0	0.902	-0.595	
11.0	0.0	0.0	0.0	0.0	498.0	0.918	-0.686	
12.0	0.0	0.0	0.0	0.0	500.0	0.935	-0.568	
13.0	0.0	0.0	0.0	0.0	503.0	0.951	-0.454	
14.0	0.0	0.0	0.0	0.0	505.0	0.973	-0.475	
15.0	0.0	0.0	0.0	0.0	507.0	0.999	-0.407	
0.0	0.0	0.0	0.0	0.0	510.0	1.022	-0.296	
1.0	0.0	0.0	0.0	0.0	510.0	1.044	-0.29	
2.0	0.0	0.0	0.0	0.0	508.0	1.073	-0.305	
3.0	0.0	0.0	0.0	0.0	507.0	1.096	-0.202	
4.0	0.0	0.0	0.0	0.0	504.0	1.112	-0.146	
5.0	0.0	0.0	0.0	0.0	500.0	1.128	-0.138	
6.0	0.0	0.0	0.0	0.0	497.0	1.141	-0.149	
7.0	0.0	0.0	0.0	0.0	496.0	1.157	0.088	
8.0	0.0	0.0	0.0	0.0	496.0	1.176	0.1	
9.0	0.0	0.0	0.0	0.0	495.0	1.196	0.1	
10.0	0.0	0.0	0.0	0.0	496.0	1.218	0.305	
11.0	0.0	0.0	0.0	0.0	494.0	1.237	0.396	
12.0	0.0	0.0	0.0	0.0	496.0	1.254	0.48	
13.0	0.0	0.0	0.0	0.0	497.0	1.267	0.562	
14.0	0.0	0.0	0.0	0.0	497.0	1.276	0.504	
15.0	0.0	0.0	0.0	0.0	500.0	1.289	0.41	
0.0	0.0	0.0	0.0	0.0	502.0	1.305	0.229	
1.0	0.0	0.0	0.0	0.0	506.0	1.321	0.041	
2.0	0.0	0.0	0.0	0.0	511.0	1.337	0.009	
3.0	0.0	0.0	0.0	0.0	514.0	1.354	0.161	
4.0	0.0	0.0	0.0	0.0	516.0	1.366	0.252	
5.0	0.0	0.0	0.0	0.0	521.0	1.373	0.495	
6.0	0.0	0.0	0.0	0.0	523.0	1.379	0.527	
7.0	0.0	0.0	0.0	0.0	526.0	1.383	0.387	
8.0	0.0	0.0	0.0	0.0	528.0	1.389	0.182	
9.0	0.0	0.0	0.0	0.0	530.0	1.395	-0.05	
10.0	0.0	0.0	0.0	0.0	532.0	1.405	-0.208	
11.0	0.0	0.0	0.0	0.0	533.0	1.408	-0.378	
12.0	0.0	0.0	0.0	0.0	533.0	1.408	-0.621	
13.0	0.0	0.0	0.0	0.0	534.0	1.408	-0.744	
14.0	0.0	0.0	0.0	0.0	534.0	1.405	-0.732	
15.0	0.0	0.0	0.0	0.0	533.0	1.402	-0.647	
0.0	0.0	0.0	0.0	0.0	532.0	1.389	-0.621	
1.0	0.0	0.0	0.0	0.0	532.0	1.37	-0.724	
2.0	0.0	0.0	0.0	0.0	531.0	1.35	-0.809	
3.0	0.0	0.0	0.0	0.0	531.0	1.334	-1.037	
4.0	0.0	0.0	0.0	0.0	531.0	1.318	-1.014	
5.0	0.0	0.0	0.0	0.0	533.0	1.302	-0.97	
6.0	0.0	0.0	0.0	0.0	533.0	1.283	-0.99	
7.0	0.0	0.0	0.0	0.0	531.0	1.257	-1.002	
8.0	0.0	0.0	0.0	0.0	528.0	1.234	-1.125	
9.0	0.0	0.0	0.0	0.0	526.0	1.215	-1.052	
10.0	0.0	0.0	0.0	0.0	523.0	1.199	-0.902	
11.0	0.0	0.0	0.0	0.0	519.0	1.186	-0.7	
12.0	0.0	0.0	0.0	0.0	520.0	1.179	-0.504	
13.0	0.0	0.0	0.0	0.0	519.0	1.173	-0.413	
14.0	0.0	0.0	0.0	0.0	518.0	1.173	-0.044	
15.0	0.0	0.0	0.0	0.0	519.0	1.176	0.759	
0.0	0.0	0.0	0.0	0.0	519.0	1.186	1.225	
1.0	0.0	0.0	0.0	0.0	520.0	1.202	0.624	
2.0	0.0	0.0	0.0	0.0	520.0	1.208	-0.144	
3.0	0.0	0.0	0.0	0.0	519.0	1.208	-0.688	
4.0	0.0	0.0	0.0	0.0	519.0	1.212	-0.92	
5.0	0.0	0.0	0.0	0.0	519.0	1.208	-0.917	
6.0	0.0	0.0	0.0	0.0	517.0	1.215	-0.94	
7.0	0.0	0.0	0.0	0.0	517.0	1.237	-0.82	
8.0	0.0	0.0	0.0	0.0	519.0	1.254	-0.718	
9.0	0.0	0.0	0.0	0.0	519.0	1.267	-0.507	
10.0	0.0	0.0	0.0	0.0	518.0	1.279	-0.375	
11.0	0.0	0.0	0.0	0.0	518.0	1.286	-0.155	
12.0	0.0	0.0	0.0	0.0	519.0	1.283	-0.006	
13.0	0.0	0.0	0.0	0.0	520.0	1.283	0.091	
14.0	0.0	0.0	0.0	0.0	520.0	1.292	0.188	
15.0	0.0	0.0	0.0	0.0	519.0	1.312	0.281	
0.0	0.0	0.0	0.0	0.0	519.0	1.341	0.381	
1.0	0.0	0.0	0.0	0.0	518.0	1.363	0.39	
2.0	0.0	0.0	0.0	0.0	515.0	1.389	0.457	
3.0	0.0	0.0	0.0	0.0	511.0	1.408	0.425	
4.0	0.0	0.0	0.0	0.0	511.0	1.424	0.354	
5.0	0.0	0.0	0.0	0.0	511.0	1.441	0.36	
6.0	0.0	0.0	0.0	0.0	510.0	1.453	0.229	
7.0	0.0	0.0	0.0	0.0	511.0	1.466	0.144	
8.0	0.0	0.0	0.0	0.0	513.0	1.479	0.334	
9.0	0.0	0.0	0.0	0.0	515.0	1.489	0.349	
10.0	0.0	0.0	0.0	0.0	517.0	1.499	0.349	
11.0	0.0	0.0	0.0	0.0	518.0	1.508	0.302	
12.0	0.0	0.0	0.0	0.0	520.0	1.511	0.284	
13.0	0.0	0.0	0.0	0.0	521.0	1.511	0.208	
14.0	0.0	0.0	0.0	0.0	523.0	1.505	0.22	
15.0	0.0	0.0	0.0	0.0	524.0	1.492	0.29	
0.0	0.0	0.0	0.0	0.0	526.0	1.476	0.425	
1.0	0.0	0.0	0.0	0.0	528.0	1.457	0.419	
2.0	0.0	0.0	0.0	0.0	530.0	1.437	0.524	
3.0	0.0	0.0	0.0	0.0	532.0	1.415	0.521	
4.0	0.0	0.0	0.0	0.0	533.0	1.392	0.478	
5.0	0.0	0.0	0.0	0.0	534.0	1.363	0.331	
6.0	0.0	0.0	0.0	0.0	531.0	1.334	0.255	
7.0	0.0	0.0	0.0	0.0	531.0	1.299	0.179	
8.0	0.0	0.0	0.0	0.0	529.0	1.257	0.021	
9.0	0.0	0.0	0.0	0.0	526.0	1.215	-0.091	
10.0	0.0	0.0	0.0	0.0	524.0	1.17	0.164	
11.0	0.0	0.0	0.0	0.0	523.0	1.128	0.111	
12.0	0.0	0.0	0.0	0.0	524.0	1.083	0.226	
13.0	0.0	0.0	0.0	0.0	524.0	1.041	0.117	
14.0	0.0	0.0	0.0	0.0	524.0	0.999	0.0	
15.0	0.0	0.0	0.0	0.0	523.0	0.964	0.021	
0.0	0.0	0.0	0.0	0.0	521.0	0.928	-0.094	
1.0	0.0	0.0	0.0	0.0	519.0	0.899	0.079	
2.0	0.0	0.0	0.0	0.0	518.0	0.873	0.208	
3.0	0.0	0.0	0.0	0.0	516.0	0.851	0.229	
4.0	0.0	0.0	0.0	0.0	516.0	0.825	0.1	
5.0	0.0	0.0	0.0	0.0	515.0	0.799	-0.059	
6.0	0.0	0.0	0.0	0.0	515.0	0.773	0.015	
7.0	0.0	0.0	0.0	0.0	516.0	0.751	1.008	
8.0	0.0	0.0	0.0	0.0	517.0	0.732	1.304	
9.0	0.0	0.0	0.0	0.0	518.0	0.712	0.841	
10.0	0.0	0.0	0.0	0.0	519.0	0.683	0.032	
11.0	0.0	0.0	0.0	0.0	519.0	0.651	-0.478	
12.0	0.0	0.0	0.0	0.0	517.0	0.622	-0.688	
13.0	0.0	0.0	0.0	0.0	514.0	0.596	-0.536	
14.0	0.0	0.0	0.0	0.0	510.0	0.583	-0.501	
15.0	0.0	0.0	0.0	0.0	508.0	0.574	-0.437	
0.0	0.0	0.0	0.0	0.0	505.0	0.567	-0.275	
1.0	0.0	0.0	0.0	0.0	502.0	0.567	-0.264	
2.0	0.0	0.0	0.0	0.0	499.0	0.57	-0.161	
3.0	0.0	0.0	0.0	0.0	498.0	0.564	0.006	
4.0	0.0	0.0	0.0	0.0	495.0	0.545	0.067	
5.0	0.0	0.0	0.0	0.0	493.0	0.512	-0.015	
6.0	0.0	0.0	0.0	0.0	493.0	0.48	0.062	
7.0	0.0	0.0	0.0	0.0	493.0	0.448	0.1	
8.0	0.0	0.0	0.0	0.0	493.0	0.416	0.123	
9.0	0.0	0.0	0.0	0.0	494.0	0.393	0.126	
10.0	0.0	0.0	0.0	0.0	492.0	0.374	0.199	
11.0	0.0	0.0	0.0	0.0	492.0	0.361	0.305	
12.0	0.0	0.0	0.0	0.0	493.0	0.358	0.384	
13.0	0.0	0.0	0.0	0.0	492.0	0.358	0.419	
14.0	0.0	0.0	0.0	0.0	494.0	0.351	0.472	
15.0	0.0	0.0	0.0	0.0	496.0	0.345	0.308	
0.0	0.0	0.0	0.0	0.0	498.0	0.332	0.302	
1.0	0.0	0.0	0.0	0.0	499.0	0.319	0.226	
2.0	0.0	0.0	0.0	0.0	502.0	0.309	0.144	
3.0	0.0	0.0	0.0	0.0	505.0	0.3	-0.029	
4.0	0.0	0.0	0.0	0.0	509.0	0.296	-0.021	
5.0	0.0	0.0	0.0	0.0	512.0	0.287	-0.114	
6.0	0.0	0.0	0.0	0.0	515.0	0.274	-0.202	
7.0	0.0	0.0	0.0	0.0	518.0	0.258	-0.375	
8.0	0.0	0.0	0.0	0.0	520.0	0.245	-0.357	
9.0	0.0	0.0	0.0	0.0	521.0	0.226	-0.463	
10.0	0.0	0.0	0.0	0.0	523.0	0.203	-0.337	
11.0	0.0	0.0	0.0	0.0	524.0	0.18	-0.246	
12.0	0.0	0.0	0.0	0.0	523.0	0.155	-0.064	
13.0	0.0	0.0	0.0	0.0	524.0	0.122	-0.026	
14.0	0.0	0.0	0.0	0.0	527.0	0.084	0.026	
15.0	0.0	0.0	0.0	0.0	529.0	0.042	-0.012	
0.0	0.0	0.0	0.0	0.0	530.0	-0.013	-0.021	
1.0	0.0	0.0	0.0	0.0	529.0	-0.071	-0.111	
2.0	0.0	0.0	0.0	0.0	528.0	-0.135	-0.056	
3.0	0.0	0.0	0.0	0.0	529.0	-0.209	-0.023	
4.0	0.0	0.0	0.0	0.0	528.0	-0.284	0.132	
5.0	0.0	0.0	0.0	0.0	526.0	-0.364	0.009	
6.0	0.0	0.0	0.0	0.0	525.0	-0.445	0.05	
7.0	0.0	0.0	0.0	0.0	523.0	-0.519	0.12	
8.0	0.0	0.0	0.0	0.0	523.0	-0.593	-0.015	
9.0	0.0	0.0	0.0	0.0	519.0	-0.661	-0.053	
10.0	0.0	0.0	0.0	0.0	516.0	-0.725	-0.085	
11.0	0.0	0.0	0.0	0.0	516.0	-0.783	-0.114	
12.0	0.0	0.0	0.0	0.0	515.0	-0.835	-0.023	
13.0	0.0	0.0	0.0	0.0	516.0	-0.883	-0.179	
14.0	0.0	0.0	0.0	0.0	515.0	-0.935	-0.208	
15.0	0.0	0.0	0.0	0.0	515.0	-0.976	0.05	
0.0	0.0	0.0	0.0	0.0	513.0	-1.005	0.946	
1.0	0.0	0.0	0.0	0.0	513.0	-1.025	1.154	
2.0	0.0	0.0	0.0	0.0	513.0	-1.044	0.381	
3.0	0.0	0.0	0.0	0.0	514.0	-1.073	-0.311	
4.0	0.0	0.0	0.0	0.0	514.0	-1.105	-0.691	
5.0	0.0	0.0	0.0	0.0	514.0	-1.131	-0.422	
6.0	0.0	0.0	0.0	0.0	514.0	-1.16	-0.305	
7.0	0.0	0.0	0.0	0.0	513.0	-1.189	-0.448	
8.0	0.0	0.0	0.0	0.0	510.0	-1.212	-0.337	
9.0	0.0	0.0	0.0	0.0	509.0	-1.228	-0.226	
10.0	0.0	0.0	0.0	0.0	506.0	-1.231	-0.185	
11.0	0.0	0.0	0.0	0.0	505.0	-1.225	-0.097	
12.0	0.0	0.0	0.0	0.0	503.0	-1.225	-0.018	
13.0	0.0	0.0	0.0	0.0	502.0	-1.228	-0.1	
14.0	0.0	0.0	0.0	0.0	503.0	-1.234	0.026	
15.0	0.0	0.0	0.0	0.0	503.0	-1.244	0.064	
0.0	0.0	0.0	0.0	0.0	502.0	-1.241	0.261	
1.0	0.0	0.0	0.0	0.0	504.0	-1.231	0.226	
2.0	0.0	0.0	0.0	0.0	504.0	-1.225	0.132	
3.0	0.0	0.0	0.0	0.0	504.0	-1.221	0.135	
4.0	0.0	0.0	0.0	0.0	504.0	-1.218	0.167	
5.0	0.0	0.0	0.0	0.0	505.0	-1.212	0.111	
6.0	0.0	0.0	0.0	0.0	506.0	-1.192	0.103	
7.0	0.0	0.0	0.0	0.0	506.0	-1.176	-0.026	
8.0	0.0	0.0	0.0	0.0	506.0	-1.157	-0.152	
9.0	0.0	0.0	0.0	0.0	506.0	-1.138	-0.155	
10.0	0.0	0.0	0.0	0.0	507.0	-1.115	-0.249	
11.0	0.0	0.0	0.0	0.0	508.0	-1.092	-0.237	
12.0	0.0	0.0	0.0	0.0	513.0	-1.07	-0.234	
13.0	0.0	0.0	0.0	0.0	519.0	-1.044	-0.237	
14.0	0.0	0.0	0.0	0.0	523.0	-1.022	-0.155	
15.0	0.0	0.0	0.0	0.0	527.0	-1.002	-0.035	
0.0	0.0	0.0	0.0	0.0	529.0	-0.983	0.026	
1.0	0.0	0.0	0.0	0.0	532.0	-0.973	-0.041	
2.0	0.0	0.0	0.0	0.0	534.0	-0.964	0.012	
3.0	0.0	0.0	0.0	0.0	535.0	-0.954	0.079	
4.0	0.0	0.0	0.0	0.0	536.0	-0.954	-0.012	
5.0	0.0	0.0	0.0	0.0	538.0	-0.957	-0.117	
6.0	0.0	0.0	0.0	0.0	540.0	-0.964	-0.126	
7.0	0.0	0.0	0.0	0.0	540.0	-0.97	-0.164	
8.0	0.0	0.0	0.0	0.0	542.0	-0.973	-0.167	
9.0	0.0	0.0	0.0	0.0	541.0	-0.976	-0.012	
10.0	0.0	0.0	0.0	0.0	540.0	-0.976	0.135	
11.0	0.0	0.0	0.0	0.0	538.0	-0.973	0.202	
12.0	0.0	0.0	0.0	0.0	539.0	-0.957	0.36	
13.0	0.0	0.0	0.0	0.0	537.0	-0.935	0.489	
14.0	0.0	0.0	0.0	0.0	535.0	-0.912	0.536	
15.0	0.0	0.0	0.0	0.0	534.0	-0.893	0.439	
0.0	0.0	0.0	0.0	0.0	533.0	-0.873	0.439	
1.0	0.0	0.0	0.0	0.0	530.0	-0.86	0.492	
2.0	0.0	0.0	0.0	0.0	526.0	-0.854	0.454	
3.0	0.0	0.0	0.0	0.0	522.0	-0.851	0.331	
4.0	0.0	0.0	0.0	0.0	520.0	-0.854	0.255	
5.0	0.0	0.0	0.0	0.0	519.0	-0.857	0.111	
6.0	0.0	0.0	0.0	0.0	516.0	-0.873	0.123	
7.0	0.0	0.0	0.0	0.0	515.0	-0.883	0.103	
8.0	0.0	0.0	0.0	0.0	514.0	-0.899	-0.015	
9.0	0.0	0.0	0.0	0.0	514.0	-0.915	0.141	
10.0	0.0	0.0	0.0	0.0	513.0	-0.931	0.823	
11.0	0.0	0.0	0.0	0.0	514.0	-0.951	1.494	
12.0	0.0	0.0	0.0	0.0	513.0	-0.97	1.447	
13.0	0.0	0.0	0.0	0.0	516.0	-0.996	0.396	
14.0	0.0	0.0	0.0	0.0	515.0	-1.015	-0.182	
15.0	0.0	0.0	0.0	0.0	515.0	-1.025	-0.334	
0.0	0.0	0.0	0.0	0.0	515.0	-1.034	-0.305	
1.0	0.0	0.0	0.0	0.0	516.0	-1.047	-0.275	
2.0	0.0	0.0	0.0	0.0	515.0	-1.06	-0.305	
3.0	0.0	0.0	0.0	0.0	514.0	-1.073	-0.237	
4.0	0.0	0.0	0.0	0.0	515.0	-1.083	-0.211	
5.0	0.0	0.0	0.0	0.0	515.0	-1.092	-0.155	
6.0	0.0	0.0	0.0	0.0	513.0	-1.102	-0.026	
7.0	0.0	0.0	0.0	0.0	510.0	-1.118	-0.073	
8.0	0.0	0.0	0.0	0.0	508.0	-1.138	-0.07	
9.0	0.0	0.0	0.0	0.0	508.0	-1.157	-0.076	
10.0	0.0	0.0	0.0	0.0	504.0	-1.173	-0.059	
11.0	0.0	0.0	0.0	0.0	500.0	-1.183	-0.035	
12.0	0.0	0.0	0.0	0.0	497.0	-1.192	-0.07	
13.0	0.0	0.0	0.0	0.0	494.0	-1.202	-0.021	
14.0	0.0	0.0	0.0	0.0	492.0	-1.208	0.0	
15.0	0.0	0.0	0.0	0.0	492.0	-1.215	0.032	
0.0	0.0	0.0	0.0	0.0	492.0	-1.215	-0.018	
1.0	0.0	0.0	0.0	0.0	494.0	-1.215	0.003	
2.0	0.0	0.0	0.0	0.0	499.0	-1.212	-0.029	
3.0	0.0	0.0	0.0	0.0	502.0	-1.212	-0.073	
4.0	0.0	0.0	0.0	0.0	507.0	-1.212	-0.135	
5.0	0.0	0.0	0.0	0.0	511.0	-1.208	-0.182	
6.0	0.0	0.0	0.0	0.0	515.0	-1.208	-0.214	
7.0	0.0	0.0	0.0	0.0	518.0	-1.205	-0.185	
8.0	0.0	0.0	0.0	0.0	521.0	-1.202	-0.161	
9.0	0.0	0.0	0.0	0.0	527.0	-1.199	-0.149	
10.0	0.0	0.0	0.0	0.0	530.0	-1.189	-0.179	
11.0	0.0	0.0	0.0	0.0	533.0	-1.179	-0.176	
12.0	0.0	0.0	0.0	0.0	537.0	-1.167	-0.199	
13.0	0.0	0.0	0.0	0.0	540.0	-1.154	-0.176	
14.0	0.0	0.0	0.0	0.0	541.0	-1.138	-0.155	
15.0	0.0	0.0	0.0	0.0	542.0	-1.121	-0.073	
0.0	0.0	0.0	0.0	0.0	543.0	-1.105	-0.073	
1.0	0.0	0.0	0.0	0.0	542.0	-1.089	-0.1	
2.0	0.0	0.0	0.0	0.0	541.0	-1.073	-0.041	
3.0	0.0	0.0	0.0	0.0	538.0	-1.06	-0.038	
4.0	0.0	0.0	0.0	0.0	536.0	-1.047	-0.009	
5.0	0.0	0.0	0.0	0.0	535.0	-1.034	0.009	
6.0	0.0	0.0	0.0	0.0	533.0	-1.025	-0.029	
7.0	0.0	0.0	0.0	0.0	532.0	-1.015	-0.076	
8.0	0.0	0.0	0.0	0.0	530.0	-1.009	-0.085	
9.0	0.0	0.0	0.0	0.0	528.0	-1.002	-0.146	
10.0	0.0	0.0	0.0	0.0	527.0	-0.993	-0.126	
11.0	0.0	0.0	0.0	0.0	525.0	-0.983	-0.144	
12.0	0.0	0.0	0.0	0.0	524.0	-0.976	-0.062	
13.0	0.0	0.0	0.0	0.0	522.0	-0.97	-0.059	
14.0	0.0	0.0	0.0	0.0	520.0	-0.967	-0.056	
15.0	0.0	0.0	0.0	0.0	519.0	-0.964	-0.056	
0.0	0.0	0.0	0.0	0.0	517.0	-0.954	-0.091	
1.0	0.0	0.0	0.0	0.0	515.0	-0.944	-0.246	
2.0	0.0	0.0	0.0	0.0	512.0	-0.938	-0.176	
3.0	0.0	0.0	0.0	0.0	510.0	-0.935	-0.152	
4.0	0.0	0.0	0.0	0.0	511.0	-0.925	-0.179	
5.0	0.0	0.0	0.0	0.0	511.0	-0.922	-0.22	
6.0	0.0	0.0	0.0	0.0	510.0	-0.915	-0.188	
7.0	0.0	0.0	0.0	0.0	510.0	-0.909	0.223	
8.0	0.0	0.0	0.0	0.0	510.0	-0.902	1.228	
9.0	0.0	0.0	0.0	0.0	510.0	-0.899	1.494	
10.0	0.0	0.0	0.0	0.0	509.0	-0.896	0.735	
11.0	0.0	0.0	0.0	0.0	511.0	-0.896	-0.135	
12.0	0.0	0.0	0.0	0.0	512.0	-0.889	-0.542	
13.0	0.0	0.0	0.0	0.0	512.0	-0.877	-0.478	
14.0	0.0	0.0	0.0	0.0	512.0	-0.867	-0.472	
15.0	0.0	0.0	0.0	0.0	511.0	-0.86	-0.492	
0.0	0.0	0.0	0.0	0.0	510.0	-0.854	-0.445	
1.0	0.0	0.0	0.0	0.0	508.0	-0.848	-0.357	
2.0	0.0	0.0	0.0	0.0	505.0	-0.841	-0.319	
3.0	0.0	0.0	0.0	0.0	504.0	-0.831	-0.229	
4.0	0.0	0.0	0.0	0.0	502.0	-0.831	-0.226	
5.0	0.0	0.0	0.0	0.0	498.0	-0.831	-0.188	
6.0	0.0	0.0	0.0	0.0	497.0	-0.835	-0.19	
7.0	0.0	0.0	0.0	0.0	495.0	-0.841	-0.105	
8.0	0.0	0.0	0.0	0.0	492.0	-0.844	-0.117	
9.0	0.0	0.0	0.0	0.0	489.0	-0.848	-0.053	
10.0	0.0	0.0	0.0	0.0	490.0	-0.851	-0.018	
11.0	0.0	0.0	0.0	0.0	492.0	-0.854	-0.006	
12.0	0.0	0.0	0.0	0.0	494.0	-0.854	0.035	
13.0	0.0	0.0	0.0	0.0	496.0	-0.854	0.1	
14.0	0.0	0.0	0.0	0.0	500.0	-0.854	0.117	
15.0	0.0	0.0	0.0	0.0	504.0	-0.851	0.082	
0.0	0.0	0.0	0.0	0.0	506.0	-0.844	0.079	
1.0	0.0	0.0	0.0	0.0	510.0	-0.838	0.056	
2.0	0.0	0.0	0.0	0.0	510.0	-0.835	-0.023	
3.0	0.0	0.0	0.0	0.0	511.0	-0.828	-0.073	
4.0	0.0	0.0	0.0	0.0	512.0	-0.825	-0.12	
5.0	0.0	0.0	0.0	0.0	514.0	-0.815	-0.035	
6.0	0.0	0.0	0.0	0.0	517.0	-0.812	0.076	
7.0	0.0	0.0	0.0	0.0	518.0	-0.812	0.032	
8.0	0.0	0.0	0.0	0.0	521.0	-0.812	-0.053	
9.0	0.0	0.0	0.0	0.0	523.0	-0.809	-0.214	
10.0	0.0	0.0	0.0	0.0	524.0	-0.806	-0.305	
11.0	0.0	0.0	0.0	0.0	526.0	-0.806	-0.387	
12.0	0.0	0.0	0.0	0.0	526.0	-0.806	-0.422	
13.0	0.0	0.0	0.0	0.0	527.0	-0.802	-0.381	
14.0	0.0	0.0	0.0	0.0	527.0	-0.802	-0.296	
15.0	0.0	0.0	0.0	0.0	526.0	-0.802	-0.249	
0.0	0.0	0.0	0.0	0.0	526.0	-0.802	-0.258	
1.0	0.0	0.0	0.0	0.0	527.0	-0.802	-0.261	
2.0	0.0	0.0	0.0	0.0	527.0	-0.802	-0.223	
3.0	0.0	0.0	0.0	0.0	527.0	-0.799	-0.117	
4.0	0.0	0.0	0.0	0.0	526.0	-0.799	-0.132	
5.0	0.0	0.0	0.0	0.0	524.0	-0.79	-0.161	
6.0	0.0	0.0	0.0	0.0	522.0	-0.783	-0.035	
7.0	0.0	0.0	0.0	0.0	520.0	-0.77	-0.015	
8.0	0.0	0.0	0.0	0.0	519.0	-0.754	-0.085	
9.0	0.0	0.0	0.0	0.0	519.0	-0.728	-0.158	
10.0	0.0	0.0	0.0	0.0	516.0	-0.703	-0.126	
11.0	0.0	0.0	0.0	0.0	515.0	-0.68	-0.211	
12.0	0.0	0.0	0.0	0.0	513.0	-0.657	-0.185	
13.0	0.0	0.0	0.0	0.0	512.0	-0.632	0.044	
14.0	0.0	0.0	0.0	0.0	512.0	-0.609	0.19	
15.0	0.0	0.0	0.0	0.0	511.0	-0.59	0.255	
0.0	0.0	0.0	0.0	0.0	509.0	-0.57	0.319	
1.0	0.0	0.0	0.0	0.0	509.0	-0.551	0.29	
2.0	0.0	0.0	0.0	0.0	510.0	-0.529	0.082	
3.0	0.0	0.0	0.0	0.0	509.0	-0.506	-0.085	
4.0	0.0	0.0	0.0	0.0	506.0	-0.483	-0.188	
5.0	0.0	0.0	0.0	0.0	505.0	-0.458	-0.179	
6.0	0.0	0.0	0.0	0.0	504.0	-0.432	-0.179	
7.0	0.0	0.0	0.0	0.0	504.0	-0.406	-0.264	
8.0	0.0	0.0	0.0	0.0	503.0	-0.383	-0.17	
9.0	0.0	0.0	0.0	0.0	502.0	-0.358	0.445	
10.0	0.0	0.0	0.0	0.0	500.0	-0.335	1.359	
11.0	0.0	0.0	0.0	0.0	499.0	-0.306	1.43	
12.0	0.0	0.0	0.0	0.0	499.0	-0.28	0.328	
13.0	0.0	0.0	0.0	0.0	498.0	-0.258	-0.302	
14.0	0.0	0.0	0.0	0.0	498.0	-0.238	-0.686	
15.0	0.0	0.0	0.0	0.0	498.0	-0.222	-0.68	
0.0	0.0	0.0	0.0	0.0	496.0	-0.219	-0.686	
1.0	0.0	0.0	0.0	0.0	497.0	-0.232	-0.639	
2.0	0.0	0.0	0.0	0.0	497.0	-0.251	-0.609	
3.0	0.0	0.0	0.0	0.0	495.0	-0.284	-0.445	
4.0	0.0	0.0	0.0	0.0	496.0	-0.322	-0.27	
5.0	0.0	0.0	0.0	0.0	496.0	-0.367	-0.076	
6.0	0.0	0.0	0.0	0.0	496.0	-0.422	0.021	
7.0	0.0	0.0	0.0	0.0	494.0	-0.48	-0.161	
8.0	0.0	0.0	0.0	0.0	494.0	-0.538	-0.275	
9.0	0.0	0.0	0.0	0.0	495.0	-0.596	-0.281	
10.0	0.0	0.0	0.0	0.0	494.0	-0.651	-0.264	
11.0	0.0	0.0	0.0	0.0	492.0	-0.709	-0.082	
12.0	0.0	0.0	0.0	0.0	492.0	-0.77	0.135	
13.0	0.0	0.0	0.0	0.0	491.0	-0.828	0.299	
14.0	0.0	0.0	0.0	0.0	490.0	-0.886	0.524	
15.0	0.0	0.0	0.0	0.0	489.0	-0.938	0.583	
0.0	0.0	0.0	0.0	0.0	491.0	-0.973	0.56	
1.0	0.0	0.0	0.0	0.0	493.0	-0.993	0.46	
2.0	0.0	0.0	0.0	0.0	497.0	-1.002	0.334	
3.0	0.0	0.0	0.0	0.0	498.0	-1.009	0.173	
4.0	0.0	0.0	0.0	0.0	501.0	-1.005	-0.041	
5.0	0.0	0.0	0.0	0.0	504.0	-1.002	-0.19	
6.0	0.0	0.0	0.0	0.0	506.0	-1.002	-0.275	
7.0	0.0	0.0	0.0	0.0	507.0	-1.002	-0.229	
8.0	0.0	0.0	0.0	0.0	510.0	-1.002	-0.135	
9.0	0.0	0.0	0.0	0.0	512.0	-1.005	-0.067	
10.0	0.0	0.0	0.0	0.0	514.0	-1.009	-0.026	
11.0	0.0	0.0	0.0	0.0	517.0	-1.015	-0.044	
12.0	0.0	0.0	0.0	0.0	518.0	-1.018	-0.035	
13.0	0.0	0.0	0.0	0.0	517.0	-1.018	-0.105	
14.0	0.0	0.0	0.0	0.0	516.0	-1.015	-0.173	
15.0	0.0	0.0	0.0	0.0	517.0	-1.012	-0.223	
0.0	0.0	0.0	0.0	0.0	518.0	-1.009	-0.258	
1.0	0.0	0.0	0.0	0.0	519.0	-1.009	-0.176	
2.0	0.0	0.0	0.0	0.0	519.0	-1.015	-0.138	
3.0	0.0	0.0	0.0	0.0	519.0	-1.022	0.006	
4.0	0.0	0.0	0.0	0.0	519.0	-1.028	0.091	
5.0	0.0	0.0	0.0	0.0	519.0	-1.028	0.258	
6.0	0.0	0.0	0.0	0.0	515.0	-1.022	0.229	
7.0	0.0	0.0	0.0	0.0	513.0	-1.009	0.185	
8.0	0.0	0.0	0.0	0.0	512.0	-0.993	0.097	
9.0	0.0	0.0	0.0	0.0	511.0	-0.97	0.114	
10.0	0.0	0.0	0.0	0.0	510.0	-0.944	0.094	
11.0	0.0	0.0	0.0	0.0	510.0	-0.918	0.035	
12.0	0.0	0.0	0.0	0.0	508.0	-0.886	0.135	
13.0	0.0	0.0	0.0	0.0	505.0	-0.857	0.144	
14.0	0.0	0.0	0.0	0.0	504.0	-0.828	0.202	
15.0	0.0	0.0	0.0	0.0	504.0	-0.802	0.243	
0.0	0.0	0.0	0.0	0.0	504.0	-0.777	0.302	
1.0	0.0	0.0	0.0	0.0	505.0	-0.757	0.396	
2.0	0.0	0.0	0.0	0.0	504.0	-0.735	0.407	
3.0	0.0	0.0	0.0	0.0	505.0	-0.725	0.378	
4.0	0.0	0.0	0.0	0.0	503.0	-0.709	0.249	
5.0	0.0	0.0	0.0	0.0	502.0	-0.703	0.176	
6.0	0.0	0.0	0.0	0.0	502.0	-0.693	0.129	
7.0	0.0	0.0	0.0	0.0	501.0	-0.683	0.129	
8.0	0.0	0.0	0.0	0.0	500.0	-0.674	0.091	
9.0	0.0	0.0	0.0	0.0	500.0	-0.664	-0.044	
10.0	0.0	0.0	0.0	0.0	499.0	-0.654	0.111	
11.0	0.0	0.0	0.0	0.0	499.0	-0.645	0.75	
12.0	0.0	0.0	0.0	0.0	499.0	-0.632	1.459	
13.0	0.0	0.0	0.0	0.0	497.0	-0.616	1.125	
14.0	0.0	0.0	0.0	0.0	496.0	-0.599	0.252	
15.0	0.0	0.0	0.0	0.0	496.0	-0.59	-0.316	
0.0	0.0	0.0	0.0	0.0	497.0	-0.58	-0.498	
1.0	0.0	0.0	0.0	0.0	497.0	-0.574	-0.407	
2.0	0.0	0.0	0.0	0.0	496.0	-0.567	-0.343	
3.0	0.0	0.0	0.0	0.0	497.0	-0.551	-0.328	
4.0	0.0	0.0	0.0	0.0	496.0	-0.535	-0.311	
5.0	0.0	0.0	0.0	0.0	495.0	-0.516	-0.299	
6.0	0.0	0.0	0.0	0.0	494.0	-0.49	-0.246	
7.0	0.0	0.0	0.0	0.0	493.0	-0.467	-0.173	
8.0	0.0	0.0	0.0	0.0	492.0	-0.454	-0.158	
9.0	0.0	0.0	0.0	0.0	492.0	-0.445	-0.029	
10.0	0.0	0.0	0.0	0.0	491.0	-0.445	-0.026	
11.0	0.0	0.0	0.0	0.0	491.0	-0.448	0.0	
12.0	0.0	0.0	0.0	0.0	492.0	-0.448	0.053	
13.0	0.0	0.0	0.0	0.0	493.0	-0.451	0.12	
14.0	0.0	0.0	0.0	0.0	494.0	-0.451	0.12	
15.0	0.0	0.0	0.0	0.0	495.0	-0.454	0.152	
0.0	0.0	0.0	0.0	0.0	493.0	-0.445	0.182	
1.0	0.0	0.0	0.0	0.0	492.0	-0.435	0.126	
2.0	0.0	0.0	0.0	0.0	492.0	-0.419	0.059	
3.0	0.0	0.0	0.0	0.0	492.0	-0.406	0.003	
4.0	0.0	0.0	0.0	0.0	493.0	-0.39	0.021	
5.0	0.0	0.0	0.0	0.0	495.0	-0.38	-0.018	
6.0	0.0	0.0	0.0	0.0	495.0	-0.367	-0.105	
7.0	0.0	0.0	0.0	0.0	495.0	-0.358	-0.155	
8.0	0.0	0.0	0.0	0.0	496.0	-0.348	-0.229	
9.0	0.0	0.0	0.0	0.0	499.0	-0.335	-0.188	
10.0	0.0	0.0	0.0	0.0	499.0	-0.325	-0.258	
11.0	0.0	0.0	0.0	0.0	500.0	-0.319	-0.182	
12.0	0.0	0.0	0.0	0.0	502.0	-0.309	-0.19	
13.0	0.0	0.0	0.0	0.0	503.0	-0.3	-0.161	
14.0	0.0	0.0	0.0	0.0	503.0	-0.29	-0.176	
15.0	0.0	0.0	0.0	0.0	504.0	-0.277	-0.117	
0.0	0.0	0.0	0.0	0.0	506.0	-0.258	-0.111	
1.0	0.0	0.0	0.0	0.0	506.0	-0.248	-0.103	
2.0	0.0	0.0	0.0	0.0	507.0	-0.232	-0.085	
3.0	0.0	0.0	0.0	0.0	507.0	-0.219	-0.091	
4.0	0.0	0.0	0.0	0.0	508.0	-0.206	-0.105	
5.0	0.0	0.0	0.0	0.0	508.0	-0.197	-0.067	
6.0	0.0	0.0	0.0	0.0	507.0	-0.187	-0.111	
7.0	0.0	0.0	0.0	0.0	506.0	-0.18	-0.085	
8.0	0.0	0.0	0.0	0.0	504.0	-0.168	-0.114	
9.0	0.0	0.0	0.0	0.0	504.0	-0.158	-0.044	
10.0	0.0	0.0	0.0	0.0	504.0	-0.148	-0.062	
11.0	0.0	0.0	0.0	0.0	505.0	-0.135	-0.091	
12.0	0.0	0.0	0.0	0.0	504.0	-0.126	-0.07	
13.0	0.0	0.0	0.0	0.0	504.0	-0.11	-0.085	
14.0	0.0	0.0	0.0	0.0	506.0	-0.097	-0.044	
15.0	0.0	0.0	0.0	0.0	507.0	-0.084	-0.006	
0.0	0.0	0.0	0.0	0.0	508.0	-0.068	0.032	
1.0	0.0	0.0	0.0	0.0	508.0	-0.052	0.088	
2.0	0.0	0.0	0.0	0.0	507.0	-0.039	0.021	
3.0	0.0	0.0	0.0	0.0	505.0	-0.026	-0.073	
4.0	0.0	0.0	0.0	0.0	505.0	-0.013	-0.114	
5.0	0.0	0.0	0.0	0.0	505.0	0.0	-0.214	
6.0	0.0	0.0	0.0	0.0	504.0	0.01	-0.205	
7.0	0.0	0.0	0.0	0.0	503.0	0.019	-0.146	
8.0	0.0	0.0	0.0	0.0	501.0	0.023	-0.214	
9.0	0.0	0.0	0.0	0.0	500.0	0.026	-0.205	
10.0	0.0	0.0	0.0	0.0	500.0	0.029	0.231	
11.0	0.0	0.0	0.0	0.0	498.0	0.035	1.104	
12.0	0.0	0.0	0.0	0.0	497.0	0.039	1.433	
13.0	0.0	0.0	0.0	0.0	494.0	0.042	0.7	
14.0	0.0	0.0	0.0	0.0	492.0	0.039	-0.015	
15.0	0.0	0.0	0.0	0.0	490.0	0.039	-0.472	
0.0	0.0	0.0	0.0	0.0	486.0	0.042	-0.492	
1.0	0.0	0.0	0.0	0.0	486.0	0.042	-0.454	
2.0	0.0	0.0	0.0	0.0	486.0	0.048	-0.384	
3.0	0.0	0.0	0.0	0.0	489.0	0.058	-0.36	
4.0	0.0	0.0	0.0	0.0	491.0	0.068	-0.249	
5.0	0.0	0.0	0.0	0.0	491.0	0.081	-0.19	
6.0	0.0	0.0	0.0	0.0	492.0	0.09	-0.167	
7.0	0.0	0.0	0.0	0.0	493.0	0.093	-0.149	
8.0	0.0	0.0	0.0	0.0	494.0	0.087	-0.126	
9.0	0.0	0.0	0.0	0.0	494.0	0.077	-0.085	
10.0	0.0	0.0	0.0	0.0	494.0	0.068	-0.062	
11.0	0.0	0.0	0.0	0.0	493.0	0.058	-0.006	
12.0	0.0	0.0	0.0	0.0	493.0	0.048	-0.023	
13.0	0.0	0.0	0.0	0.0	492.0	0.039	0.029	
14.0	0.0	0.0	0.0	0.0	493.0	0.032	0.076	
15.0	0.0	0.0	0.0	0.0	494.0	0.029	0.079	
0.0	0.0	0.0	0.0	0.0	494.0	0.032	0.138	
1.0	0.0	0.0	0.0	0.0	494.0	0.039	0.056	
2.0	0.0	0.0	0.0	0.0	492.0	0.045	0.091	
3.0	0.0	0.0	0.0	0.0	492.0	0.052	0.082	
4.0	0.0	0.0	0.0	0.0	493.0	0.058	0.018	
5.0	0.0	0.0	0.0	0.0	494.0	0.064	-0.059	
6.0	0.0	0.0	0.0	0.0	494.0	0.074	-0.144	
7.0	0.0	0.0	0.0	0.0	494.0	0.081	-0.176	
8.0	0.0	0.0	0.0	0.0	495.0	0.087	-0.27	
9.0	0.0	0.0	0.0	0.0	497.0	0.093	-0.214	
10.0	0.0	0.0	0.0	0.0	499.0	0.1	-0.214	
11.0	0.0	0.0	0.0	0.0	499.0	0.103	-0.217	
12.0	0.0	0.0	0.0	0.0	501.0	0.11	-0.141	
13.0	0.0	0.0	0.0	0.0	503.0	0.116	-0.062	
14.0	0.0	0.0	0.0	0.0	504.0	0.132	-0.035	
15.0	0.0	0.0	0.0	0.0	505.0	0.155	-0.038	
0.0	0.0	0.0	0.0	0.0	503.0	0.18	-0.032	
1.0	0.0	0.0	0.0	0.0	504.0	0.203	0.012	
2.0	0.0	0.0	0.0	0.0	504.0	0.229	0.032	
3.0	0.0	0.0	0.0	0.0	503.0	0.255	0.023	
4.0	0.0	0.0	0.0	0.0	502.0	0.284	0.023	
5.0	0.0	0.0	0.0	0.0	502.0	0.309	-0.012	
6.0	0.0	0.0	0.0	0.0	500.0	0.335	-0.059	
7.0	0.0	0.0	0.0	0.0	498.0	0.361	0.038	
8.0	0.0	0.0	0.0	0.0	496.0	0.383	0.003	
9.0	0.0	0.0	0.0	0.0	495.0	0.406	-0.018	
10.0	0.0	0.0	0.0	0.0	492.0	0.429	0.018	
11.0	0.0	0.0	0.0	0.0	492.0	0.451	-0.035	
12.0	0.0	0.0	0.0	0.0	489.0	0.474	0.021	
13.0	0.0	0.0	0.0	0.0	488.0	0.493	0.038	
14.0	0.0	0.0	0.0	0.0	488.0	0.512	0.032	
15.0	0.0	0.0	0.0	0.0	488.0	0.525	0.056	
0.0	0.0	0.0	0.0	0.0	491.0	0.535	0.138	
1.0	0.0	0.0	0.0	0.0	494.0	0.541	0.12	
2.0	0.0	0.0	0.0	0.0	496.0	0.551	0.059	
3.0	0.0	0.0	0.0	0.0	498.0	0.561	-0.038	
4.0	0.0	0.0	0.0	0.0	499.0	0.567	-0.103	
5.0	0.0	0.0	0.0	0.0	501.0	0.577	-0.07	
6.0	0.0	0.0	0.0	0.0	502.0	0.583	-0.094	
7.0	0.0	0.0	0.0	0.0	504.0	0.587	-0.152	
8.0	0.0	0.0	0.0	0.0	506.0	0.587	-0.126	
9.0	0.0	0.0	0.0	0.0	508.0	0.583	0.352	
10.0	0.0	0.0	0.0	0.0	510.0	0.577	1.342	
11.0	0.0	0.0	0.0	0.0	511.0	0.57	1.494	
12.0	0.0	0.0	0.0	0.0	512.0	0.561	0.653	
13.0	0.0	0.0	0.0	0.0	513.0	0.541	-0.117	
14.0	0.0	0.0	0.0	0.0	513.0	0.525	-0.445	
15.0	0.0	0.0	0.0	0.0	512.0	0.509	-0.434	
0.0	0.0	0.0	0.0	0.0	511.0	0.483	-0.419	
1.0	0.0	0.0	0.0	0.0	508.0	0.458	-0.369	
2.0	0.0	0.0	0.0	0.0	504.0	0.429	-0.349	
3.0	0.0	0.0	0.0	0.0	500.0	0.393	-0.322	
4.0	0.0	0.0	0.0	0.0	497.0	0.364	-0.226	
5.0	0.0	0.0	0.0	0.0	494.0	0.332	-0.146	
6.0	0.0	0.0	0.0	0.0	490.0	0.293	-0.059	
7.0	0.0	0.0	0.0	0.0	490.0	0.255	-0.1	
8.0	0.0	0.0	0.0	0.0	489.0	0.216	-0.05	
9.0	0.0	0.0	0.0	0.0	487.0	0.174	-0.006	
10.0	0.0	0.0	0.0	0.0	486.0	0.139	-0.029	
11.0	0.0	0.0	0.0	0.0	483.0	0.103	0.041	
12.0	0.0	0.0	0.0	0.0	483.0	0.071	0.105	
13.0	0.0	0.0	0.0	0.0	481.0	0.039	0.152	
14.0	0.0	0.0	0.0	0.0	480.0	0.01	0.091	
15.0	0.0	0.0	0.0	0.0	481.0	-0.016	0.161	
0.0	0.0	0.0	0.0	0.0	480.0	-0.042	0.144	
1.0	0.0	0.0	0.0	0.0	481.0	-0.061	0.082	
2.0	0.0	0.0	0.0	0.0	481.0	-0.081	0.067	
3.0	0.0	0.0	0.0	0.0	482.0	-0.1	-0.003	
4.0	0.0	0.0	0.0	0.0	482.0	-0.119	-0.067	
5.0	0.0	0.0	0.0	0.0	486.0	-0.139	-0.123	
6.0	0.0	0.0	0.0	0.0	492.0	-0.158	-0.126	
7.0	0.0	0.0	0.0	0.0	495.0	-0.171	-0.149	
8.0	0.0	0.0	0.0	0.0	497.0	-0.184	-0.103	
9.0	0.0	0.0	0.0	0.0	500.0	-0.197	-0.091	
10.0	0.0	0.0	0.0	0.0	502.0	-0.206	-0.132	
11.0	0.0	0.0	0.0	0.0	504.0	-0.216	-0.085	
12.0	0.0	0.0	0.0	0.0	505.0	-0.226	-0.062	
13.0	0.0	0.0	0.0	0.0	505.0	-0.232	-0.023	
14.0	0.0	0.0	0.0	0.0	506.0	-0.238	-0.038	
15.0	0.0	0.0	0.0	0.0	506.0	-0.245	0.015	
0.0	0.0	0.0	0.0	0.0	506.0	-0.248	0.026	
1.0	0.0	0.0	0.0	0.0	509.0	-0.248	0.003	
2.0	0.0	0.0	0.0	0.0	510.0	-0.248	-0.006	
3.0	0.0	0.0	0.0	0.0	509.0	-0.251	0.026	
4.0	0.0	0.0	0.0	0.0	508.0	-0.255	0.006	
5.0	0.0	0.0	0.0	0.0	510.0	-0.258	-0.003	
6.0	0.0	0.0	0.0	0.0	509.0	-0.258	-0.015	
7.0	0.0	0.0	0.0	0.0	508.0	-0.261	0.018	
8.0	0.0	0.0	0.0	0.0	508.0	-0.267	-0.003	
9.0	0.0	0.0	0.0	0.0	508.0	-0.274	0.026	
10.0	0.0	0.0	0.0	0.0	509.0	-0.274	0.05	
11.0	0.0	0.0	0.0	0.0	506.0	-0.277	0.032	
12.0	0.0	0.0	0.0	0.0	506.0	-0.277	0.062	
13.0	0.0	0.0	0.0	0.0	508.0	-0.274	0.044	
14.0	0.0	0.0	0.0	0.0	508.0	-0.274	0.091	
15.0	0.0	0.0	0.0	0.0	510.0	-0.274	0.064	
0.0	0.0	0.0	0.0	0.0	509.0	-0.277	0.108	
1.0	0.0	0.0	0.0	0.0	508.0	-0.277	0.117	
2.0	0.0	0.0	0.0	0.0	507.0	-0.277	0.067	
3.0	0.0	0.0	0.0	0.0	507.0	-0.274	0.029	
4.0	0.0	0.0	0.0	0.0	506.0	-0.271	-0.035	
5.0	0.0	0.0	0.0	0.0	505.0	-0.271	-0.085	
6.0	0.0	0.0	0.0	0.0	503.0	-0.267	-0.105	
7.0	0.0	0.0	0.0	0.0	500.0	-0.267	-0.111	
8.0	0.0	0.0	0.0	0.0	499.0	-0.267	-0.199	
9.0	0.0	0.0	0.0	0.0	496.0	-0.271	-0.009	
10.0	0.0	0.0	0.0	0.0	494.0	-0.271	0.747	
11.0	0.0	0.0	0.0	0.0	492.0	-0.267	1.494	
12.0	0.0	0.0	0.0	0.0	490.0	-0.261	1.456	
13.0	0.0	0.0	0.0	0.0	489.0	-0.258	0.331	
14.0	0.0	0.0	0.0	0.0	489.0	-0.255	-0.252	
15.0	0.0	0.0	0.0	0.0	491.0	-0.242	-0.466	
0.0	0.0	0.0	0.0	0.0	492.0	-0.229	-0.56	
1.0	0.0	0.0	0.0	0.0	495.0	-0.216	-0.457	
2.0	0.0	0.0	0.0	0.0	495.0	-0.213	-0.413	
3.0	0.0	0.0	0.0	0.0	494.0	-0.209	-0.375	
4.0	0.0	0.0	0.0	0.0	492.0	-0.203	-0.337	
5.0	0.0	0.0	0.0	0.0	492.0	-0.197	-0.278	
6.0	0.0	0.0	0.0	0.0	492.0	-0.193	-0.199	
7.0	0.0	0.0	0.0	0.0	492.0	-0.193	-0.182	
8.0	0.0	0.0	0.0	0.0	491.0	-0.197	-0.164	
9.0	0.0	0.0	0.0	0.0	493.0	-0.206	-0.164	
10.0	0.0	0.0	0.0	0.0	493.0	-0.216	-0.152	
11.0	0.0	0.0	0.0	0.0	493.0	-0.226	-0.114	
12.0	0.0	0.0	0.0	0.0	494.0	-0.232	-0.029	
13.0	0.0	0.0	0.0	0.0	494.0	-0.238	-0.026	
14.0	0.0	0.0	0.0	0.0	494.0	-0.242	0.123	
15.0	0.0	0.0	0.0	0.0	493.0	-0.242	0.117	
0.0	0.0	0.0	0.0	0.0	490.0	-0.238	0.132	
1.0	0.0	0.0	0.0	0.0	491.0	-0.235	0.129	
2.0	0.0	0.0	0.0	0.0	491.0	-0.232	0.079	
3.0	0.0	0.0	0.0	0.0	492.0	-0.229	0.067	
4.0	0.0	0.0	0.0	0.0	493.0	-0.226	0.015	
5.0	0.0	0.0	0.0	0.0	494.0	-0.226	-0.041	
6.0	0.0	0.0	0.0	0.0	495.0	-0.222	-0.07	
7.0	0.0	0.0	0.0	0.0	496.0	-0.219	-0.091	
8.0	0.0	0.0	0.0	0.0	498.0	-0.216	-0.111	
9.0	0.0	0.0	0.0	0.0	499.0	-0.213	-0.132	
10.0	0.0	0.0	0.0	0.0	500.0	-0.209	-0.144	
11.0	0.0	0.0	0.0	0.0	499.0	-0.209	-0.144	
12.0	0.0	0.0	0.0	0.0	501.0	-0.206	-0.164	
13.0	0.0	0.0	0.0	0.0	502.0	-0.203	-0.1	
14.0	0.0	0.0	0.0	0.0	503.0	-0.197	-0.111	
15.0	0.0	0.0	0.0	0.0	505.0	-0.187	-0.073	
0.0	0.0	0.0	0.0	0.0	507.0	-0.174	-0.067	
1.0	0.0	0.0	0.0	0.0	508.0	-0.164	-0.07	
2.0	0.0	0.0	0.0	0.0	510.0	-0.155	-0.079	
3.0	0.0	0.0	0.0	0.0	511.0	-0.148	-0.129	
4.0	0.0	0.0	0.0	0.0	512.0	-0.139	-0.108	
5.0	0.0	0.0	0.0	0.0	510.0	-0.129	-0.082	
6.0	0.0	0.0	0.0	0.0	506.0	-0.126	-0.123	
7.0	0.0	0.0	0.0	0.0	503.0	-0.116	-0.041	
8.0	0.0	0.0	0.0	0.0	499.0	-0.11	-0.059	
9.0	0.0	0.0	0.0	0.0	497.0	-0.106	-0.076	
10.0	0.0	0.0	0.0	0.0	496.0	-0.097	-0.094	
11.0	0.0	0.0	0.0	0.0	495.0	-0.084	-0.05	
12.0	0.0	0.0	0.0	0.0	494.0	-0.071	-0.029	
13.0	0.0	0.0	0.0	0.0	495.0	-0.052	-0.041	
14.0	0.0	0.0	0.0	0.0	495.0	-0.032	-0.041	
15.0	0.0	0.0	0.0	0.0	495.0	-0.01	-0.015	
0.0	0.0	0.0	0.0	0.0	496.0	0.01	0.003	
1.0	0.0	0.0	0.0	0.0	498.0	0.032	0.009	
2.0	0.0	0.0	0.0	0.0	496.0	0.055	0.105	
3.0	0.0	0.0	0.0	0.0	496.0	0.074	0.117	
4.0	0.0	0.0	0.0	0.0	495.0	0.093	0.088	
5.0	0.0	0.0	0.0	0.0	496.0	0.113	-0.026	
6.0	0.0	0.0	0.0	0.0	497.0	0.132	-0.103	
7.0	0.0	0.0	0.0	0.0	497.0	0.151	-0.114	
8.0	0.0	0.0	0.0	0.0	497.0	0.168	-0.047	
9.0	0.0	0.0	0.0	0.0	498.0	0.19	-0.117	
10.0	0.0	0.0	0.0	0.0	499.0	0.213	-0.17	
11.0	0.0	0.0	0.0	0.0	501.0	0.235	0.214	
12.0	0.0	0.0	0.0	0.0	502.0	0.261	1.169	
13.0	0.0	0.0	0.0	0.0	501.0	0.284	1.494	
14.0	0.0	0.0	0.0	0.0	499.0	0.309	0.823	
15.0	0.0	0.0	0.0	0.0	499.0	0.329	-0.041	
0.0	0.0	0.0	0.0	0.0	499.0	0.351	-0.431	
1.0	0.0	0.0	0.0	0.0	499.0	0.374	-0.448	
2.0	0.0	0.0	0.0	0.0	497.0	0.396	-0.41	
3.0	0.0	0.0	0.0	0.0	497.0	0.409	-0.378	
4.0	0.0	0.0	0.0	0.0	498.0	0.422	-0.305	
5.0	0.0	0.0	0.0	0.0	496.0	0.435	-0.299	
6.0	0.0	0.0	0.0	0.0	495.0	0.448	-0.234	
7.0	0.0	0.0	0.0	0.0	494.0	0.461	-0.138	
8.0	0.0	0.0	0.0	0.0	494.0	0.471	-0.094	
9.0	0.0	0.0	0.0	0.0	493.0	0.464	-0.097	
10.0	0.0	0.0	0.0	0.0	493.0	0.448	-0.053	
11.0	0.0	0.0	0.0	0.0	492.0	0.416	-0.026	
12.0	0.0	0.0	0.0	0.0	491.0	0.383	-0.082	
13.0	0.0	0.0	0.0	0.0	489.0	0.345	-0.023	
14.0	0.0	0.0	0.0	0.0	489.0	0.303	0.07	
15.0	0.0	0.0	0.0	0.0	487.0	0.264	0.094	
0.0	0.0	0.0	0.0	0.0	487.0	0.222	0.111	
1.0	0.0	0.0	0.0	0.0	488.0	0.184	0.275	
2.0	0.0	0.0	0.0	0.0	489.0	0.145	0.255	
3.0	0.0	0.0	0.0	0.0	488.0	0.11	0.211	
4.0	0.0	0.0	0.0	0.0	490.0	0.074	0.182	
5.0	0.0	0.0	0.0	0.0	492.0	0.035	0.053	
6.0	0.0	0.0	0.0	0.0	494.0	-0.003	0.003	
7.0	0.0	0.0	0.0	0.0	494.0	-0.045	-0.053	
8.0	0.0	0.0	0.0	0.0	495.0	-0.087	-0.114	
9.0	0.0	0.0	0.0	0.0	496.0	-0.126	-0.108	
10.0	0.0	0.0	0.0	0.0	498.0	-0.161	-0.129	
11.0	0.0	0.0	0.0	0.0	499.0	-0.187	-0.138	
12.0	0.0	0.0	0.0	0.0	499.0	-0.213	-0.12	
13.0	0.0	0.0	0.0	0.0	502.0	-0.229	-0.126	
14.0	0.0	0.0	0.0	0.0	504.0	-0.238	-0.111	
15.0	0.0	0.0	0.0	0.0	503.0	-0.248	-0.053	
0.0	0.0	0.0	0.0	0.0	504.0	-0.248	-0.035	
1.0	0.0	0.0	0.0	0.0	506.0	-0.245	-0.053	
2.0	0.0	0.0	0.0	0.0	507.0	-0.245	-0.073	
3.0	0.0	0.0	0.0	0.0	509.0	-0.245	0.003	
4.0	0.0	0.0	0.0	0.0	510.0	-0.245	-0.076	
5.0	0.0	0.0	0.0	0.0	509.0	-0.238	-0.067	
6.0	0.0	0.0	0.0	0.0	509.0	-0.232	-0.082	
7.0	0.0	0.0	0.0	0.0	506.0	-0.219	-0.205	
8.0	0.0	0.0	0.0	0.0	504.0	-0.206	-0.164	
9.0	0.0	0.0	0.0	0.0	503.0	-0.187	-0.108	
10.0	0.0	0.0	0.0	0.0	500.0	-0.168	-0.07	
11.0	0.0	0.0	0.0	0.0	498.0	-0.148	-0.018	
12.0	0.0	0.0	0.0	0.0	496.0	-0.129	-0.012	
13.0	0.0	0.0	0.0	0.0	496.0	-0.11	-0.012	
14.0	0.0	0.0	0.0	0.0	493.0	-0.087	0.082	
15.0	0.0	0.0	0.0	0.0	493.0	-0.064	0.097	
0.0	0.0	0.0	0.0	0.0	493.0	-0.042	0.047	
1.0	0.0	0.0	0.0	0.0	495.0	-0.023	0.088	
2.0	0.0	0.0	0.0	0.0	495.0	0.003	0.108	
3.0	0.0	0.0	0.0	0.0	495.0	0.023	0.07	
4.0	0.0	0.0	0.0	0.0	496.0	0.048	0.003	
5.0	0.0	0.0	0.0	0.0	497.0	0.071	-0.059	
6.0	0.0	0.0	0.0	0.0	498.0	0.09	-0.12	
7.0	0.0	0.0	0.0	0.0	501.0	0.11	-0.149	
8.0	0.0	0.0	0.0	0.0	502.0	0.122	-0.091	
9.0	0.0	0.0	0.0	0.0	503.0	0.129	-0.064	
10.0	0.0	0.0	0.0	0.0	505.0	0.135	-0.176	
11.0	0.0	0.0	0.0	0.0	506.0	0.135	0.188	
12.0	0.0	0.0	0.0	0.0	510.0	0.139	1.058	
13.0	0.0	0.0	0.0	0.0	510.0	0.139	1.491	
14.0	0.0	0.0	0.0	0.0	510.0	0.139	0.896	
15.0	0.0	0.0	0.0	0.0	508.0	0.132	0.085	
0.0	0.0	0.0	0.0	0.0	507.0	0.119	-0.384	
1.0	0.0	0.0	0.0	0.0	504.0	0.106	-0.472	
2.0	0.0	0.0	0.0	0.0	501.0	0.087	-0.398	
3.0	0.0	0.0	0.0	0.0	501.0	0.061	-0.398	
4.0	0.0	0.0	0.0	0.0	498.0	0.045	-0.375	
5.0	0.0	0.0	0.0	0.0	496.0	0.035	-0.349	
6.0	0.0	0.0	0.0	0.0	492.0	0.023	-0.313	
7.0	0.0	0.0	0.0	0.0	490.0	0.019	-0.255	
8.0	0.0	0.0	0.0	0.0	490.0	0.006	-0.214	
9.0	0.0	0.0	0.0	0.0	489.0	-0.016	-0.211	
10.0	0.0	0.0	0.0	0.0	487.0	-0.052	-0.155	
11.0	0.0	0.0	0.0	0.0	485.0	-0.093	-0.085	
12.0	0.0	0.0	0.0	0.0	484.0	-0.135	-0.094	
13.0	0.0	0.0	0.0	0.0	486.0	-0.174	-0.05	
14.0	0.0	0.0	0.0	0.0	486.0	-0.206	-0.023	
15.0	0.0	0.0	0.0	0.0	486.0	-0.235	0.023	
0.0	0.0	0.0	0.0	0.0	488.0	-0.258	0.047	
1.0	0.0	0.0	0.0	0.0	489.0	-0.271	0.067	
2.0	0.0	0.0	0.0	0.0	489.0	-0.284	0.097	
3.0	0.0	0.0	0.0	0.0	491.0	-0.29	0.12	
4.0	0.0	0.0	0.0	0.0	494.0	-0.293	0.064	
5.0	0.0	0.0	0.0	0.0	496.0	-0.3	0.05	
6.0	0.0	0.0	0.0	0.0	498.0	-0.309	-0.021	
7.0	0.0	0.0	0.0	0.0	499.0	-0.319	-0.067	
8.0	0.0	0.0	0.0	0.0	499.0	-0.329	-0.152	
9.0	0.0	0.0	0.0	0.0	499.0	-0.338	-0.079	
10.0	0.0	0.0	0.0	0.0	499.0	-0.345	-0.111	
11.0	0.0	0.0	0.0	0.0	500.0	-0.351	-0.12	
12.0	0.0	0.0	0.0	0.0	501.0	-0.358	-0.094	
13.0	0.0	0.0	0.0	0.0	504.0	-0.364	-0.132	
14.0	0.0	0.0	0.0	0.0	505.0	-0.367	-0.135	
15.0	0.0	0.0	0.0	0.0	505.0	-0.367	-0.032	
0.0	0.0	0.0	0.0	0.0	504.0	-0.364	0.003	
1.0	0.0	0.0	0.0	0.0	503.0	-0.361	0.041	
2.0	0.0	0.0	0.0	0.0	503.0	-0.351	0.029	
3.0	0.0	0.0	0.0	0.0	502.0	-0.342	0.094	
4.0	0.0	0.0	0.0	0.0	502.0	-0.335	0.091	
5.0	0.0	0.0	0.0	0.0	504.0	-0.332	0.082	
6.0	0.0	0.0	0.0	0.0	505.0	-0.329	0.05	
7.0	0.0	0.0	0.0	0.0	505.0	-0.325	0.07	
8.0	0.0	0.0	0.0	0.0	505.0	-0.319	0.035	
9.0	0.0	0.0	0.0	0.0	505.0	-0.309	0.023	
10.0	0.0	0.0	0.0	0.0	504.0	-0.293	-0.021	
11.0	0.0	0.0	0.0	0.0	501.0	-0.274	0.003	
12.0	0.0	0.0	0.0	0.0	500.0	-0.255	-0.006	
13.0	0.0	0.0	0.0	0.0	500.0	-0.229	0.009	
14.0	0.0	0.0	0.0	0.0	500.0	-0.206	0.062	
15.0	0.0	0.0	0.0	0.0	499.0	-0.18	0.108	
0.0	0.0	0.0	0.0	0.0	497.0	-0.155	0.141	
1.0	0.0	0.0	0.0	0.0	496.0	-0.129	0.229	
2.0	0.0	0.0	0.0	0.0	495.0	-0.103	0.173	
3.0	0.0	0.0	0.0	0.0	495.0	-0.081	0.123	
4.0	0.0	0.0	0.0	0.0	494.0	-0.055	0.05	
5.0	0.0	0.0	0.0	0.0	495.0	-0.035	-0.064	
6.0	0.0	0.0	0.0	0.0	496.0	-0.019	-0.085	
7.0	0.0	0.0	0.0	0.0	497.0	-0.006	-0.067	
8.0	0.0	0.0	0.0	0.0	498.0	0.0	-0.132	
9.0	0.0	0.0	0.0	0.0	500.0	0.0	-0.193	
10.0	0.0	0.0	0.0	0.0	500.0	-0.003	0.226	
11.0	0.0	0.0	0.0	0.0	501.0	-0.003	1.02	
12.0	0.0	0.0	0.0	0.0	501.0	-0.003	1.415	
13.0	0.0	0.0	0.0	0.0	502.0	-0.006	0.809	
14.0	0.0	0.0	0.0	0.0	502.0	-0.016	0.079	
15.0	0.0	0.0	0.0	0.0	499.0	-0.032	-0.375	
0.0	0.0	0.0	0.0	0.0	498.0	-0.042	-0.489	
1.0	0.0	0.0	0.0	0.0	496.0	-0.055	-0.46	
2.0	0.0	0.0	0.0	0.0	492.0	-0.064	-0.437	
3.0	0.0	0.0	0.0	0.0	491.0	-0.061	-0.422	
4.0	0.0	0.0	0.0	0.0	489.0	-0.061	-0.311	
5.0	0.0	0.0	0.0	0.0	489.0	-0.055	-0.293	
6.0	0.0	0.0	0.0	0.0	488.0	-0.048	-0.229	
7.0	0.0	0.0	0.0	0.0	487.0	-0.048	-0.138	
8.0	0.0	0.0	0.0	0.0	487.0	-0.058	-0.091	
9.0	0.0	0.0	0.0	0.0	488.0	-0.077	-0.064	
10.0	0.0	0.0	0.0	0.0	489.0	-0.1	-0.006	
11.0	0.0	0.0	0.0	0.0	488.0	-0.126	-0.067	
12.0	0.0	0.0	0.0	0.0	488.0	-0.151	0.035	
13.0	0.0	0.0	0.0	0.0	491.0	-0.171	0.035	
14.0	0.0	0.0	0.0	0.0	494.0	-0.187	0.12	
15.0	0.0	0.0	0.0	0.0	496.0	-0.2	0.108	
0.0	0.0	0.0	0.0	0.0	497.0	-0.206	0.108	
1.0	0.0	0.0	0.0	0.0	498.0	-0.209	0.114	
2.0	0.0	0.0	0.0	0.0	498.0	-0.209	0.126	
3.0	0.0	0.0	0.0	0.0	498.0	-0.209	0.035	
4.0	0.0	0.0	0.0	0.0	500.0	-0.213	0.064	
5.0	0.0	0.0	0.0	0.0	503.0	-0.216	-0.038	
6.0	0.0	0.0	0.0	0.0	504.0	-0.219	-0.085	
7.0	0.0	0.0	0.0	0.0	503.0	-0.226	-0.161	
8.0	0.0	0.0	0.0	0.0	502.0	-0.235	-0.138	
9.0	0.0	0.0	0.0	0.0	503.0	-0.248	-0.19	
10.0	0.0	0.0	0.0	0.0	502.0	-0.258	-0.176	
11.0	0.0	0.0	0.0	0.0	504.0	-0.271	-0.158	
12.0	0.0	0.0	0.0	0.0	504.0	-0.284	-0.146	
13.0	0.0	0.0	0.0	0.0	505.0	-0.29	-0.111	
14.0	0.0	0.0	0.0	0.0	505.0	-0.296	-0.152	
15.0	0.0	0.0	0.0	0.0	505.0	-0.303	-0.009	
0.0	0.0	0.0	0.0	0.0	505.0	-0.306	0.0	
1.0	0.0	0.0	0.0	0.0	506.0	-0.306	0.023	
2.0	0.0	0.0	0.0	0.0	507.0	-0.306	0.038	
3.0	0.0	0.0	0.0	0.0	506.0	-0.309	0.006	
4.0	0.0	0.0	0.0	0.0	507.0	-0.316	-0.018	
5.0	0.0	0.0	0.0	0.0	507.0	-0.322	-0.035	
6.0	0.0	0.0	0.0	0.0	506.0	-0.329	-0.047	
7.0	0.0	0.0	0.0	0.0	504.0	-0.332	-0.097	
8.0	0.0	0.0	0.0	0.0	502.0	-0.332	-0.149	
9.0	0.0	0.0	0.0	0.0	501.0	-0.325	-0.12	
10.0	0.0	0.0	0.0	0.0	503.0	-0.319	-0.088	
11.0	0.0	0.0	0.0	0.0	503.0	-0.309	-0.097	
12.0	0.0	0.0	0.0	0.0	503.0	-0.306	-0.103	
13.0	0.0	0.0	0.0	0.0	505.0	-0.3	-0.073	
14.0	0.0	0.0	0.0	0.0	504.0	-0.3	0.009	
15.0	0.0	0.0	0.0	0.0	502.0	-0.3	0.032	
0.0	0.0	0.0	0.0	0.0	501.0	-0.3	0.129	
1.0	0.0	0.0	0.0	0.0	500.0	-0.303	0.146	
2.0	0.0	0.0	0.0	0.0	500.0	-0.303	0.076	
3.0	0.0	0.0	0.0	0.0	499.0	-0.303	0.018	
4.0	0.0	0.0	0.0	0.0	499.0	-0.306	-0.114	
5.0	0.0	0.0	0.0	0.0	498.0	-0.306	-0.117	
6.0	0.0	0.0	0.0	0.0	496.0	-0.306	-0.161	
7.0	0.0	0.0	0.0	0.0	496.0	-0.303	-0.152	
8.0	0.0	0.0	0.0	0.0	495.0	-0.309	-0.217	
9.0	0.0	0.0	0.0	0.0	496.0	-0.309	0.023	
10.0	0.0	0.0	0.0	0.0	497.0	-0.306	0.768	
11.0	0.0	0.0	0.0	0.0	499.0	-0.296	1.456	
12.0	0.0	0.0	0.0	0.0	500.0	-0.284	1.198	
13.0	0.0	0.0	0.0	0.0	501.0	-0.271	0.398	
14.0	0.0	0.0	0.0	0.0	502.0	-0.258	-0.281	
15.0	0.0	0.0	0.0	0.0	502.0	-0.242	-0.492	
0.0	0.0	0.0	0.0	0.0	500.0	-0.222	-0.434	
1.0	0.0	0.0	0.0	0.0	496.0	-0.206	-0.492	
2.0	0.0	0.0	0.0	0.0	495.0	-0.187	-0.416	
3.0	0.0	0.0	0.0	0.0	495.0	-0.164	-0.328	
4.0	0.0	0.0	0.0	0.0	496.0	-0.145	-0.308	
5.0	0.0	0.0	0.0	0.0	498.0	-0.116	-0.258	
6.0	0.0	0.0	0.0	0.0	498.0	-0.087	-0.193	
7.0	0.0	0.0	0.0	0.0	496.0	-0.064	-0.114	
8.0	0.0	0.0	0.0	0.0	497.0	-0.048	-0.088	
9.0	0.0	0.0	0.0	0.0	496.0	-0.042	-0.029	
10.0	0.0	0.0	0.0	0.0	495.0	-0.042	-0.023	
11.0	0.0	0.0	0.0	0.0	493.0	-0.045	0.018	
12.0	0.0	0.0	0.0	0.0	494.0	-0.055	0.029	
13.0	0.0	0.0	0.0	0.0	496.0	-0.068	0.088	
14.0	0.0	0.0	0.0	0.0	497.0	-0.087	0.094	
15.0	0.0	0.0	0.0	0.0	499.0	-0.106	0.114	
0.0	0.0	0.0	0.0	0.0	499.0	-0.122	0.161	
1.0	0.0	0.0	0.0	0.0	499.0	-0.139	0.144	
2.0	0.0	0.0	0.0	0.0	499.0	-0.151	0.103	
3.0	0.0	0.0	0.0	0.0	499.0	-0.161	0.062	
4.0	0.0	0.0	0.0	0.0	500.0	-0.168	0.07	
5.0	0.0	0.0	0.0	0.0	501.0	-0.174	-0.021	
6.0	0.0	0.0	0.0	0.0	502.0	-0.18	0.009	
7.0	0.0	0.0	0.0	0.0	503.0	-0.19	-0.023	
8.0	0.0	0.0	0.0	0.0	504.0	-0.206	-0.053	
9.0	0.0	0.0	0.0	0.0	506.0	-0.226	-0.088	
10.0	0.0	0.0	0.0	0.0	509.0	-0.248	-0.07	
11.0	0.0	0.0	0.0	0.0	511.0	-0.271	-0.059	
12.0	0.0	0.0	0.0	0.0	512.0	-0.29	-0.047	
13.0	0.0	0.0	0.0	0.0	513.0	-0.313	-0.029	
14.0	0.0	0.0	0.0	0.0	514.0	-0.325	-0.009	
15.0	0.0	0.0	0.0	0.0	513.0	-0.338	0.032	
0.0	0.0	0.0	0.0	0.0	514.0	-0.348	0.076	
1.0	0.0	0.0	0.0	0.0	515.0	-0.358	0.111	
2.0	0.0	0.0	0.0	0.0	514.0	-0.364	0.129	
3.0	0.0	0.0	0.0	0.0	512.0	-0.377	0.079	
4.0	0.0	0.0	0.0	0.0	513.0	-0.393	0.094	
5.0	0.0	0.0	0.0	0.0	513.0	-0.409	0.103	
6.0	0.0	0.0	0.0	0.0	511.0	-0.429	0.085	
7.0	0.0	0.0	0.0	0.0	509.0	-0.448	0.064	
8.0	0.0	0.0	0.0	0.0	507.0	-0.464	0.009	
9.0	0.0	0.0	0.0	0.0	506.0	-0.483	0.038	
10.0	0.0	0.0	0.0	0.0	505.0	-0.496	0.018	
11.0	0.0	0.0	0.0	0.0	503.0	-0.509	0.026	
12.0	0.0	0.0	0.0	0.0	501.0	-0.522	-0.038	
13.0	0.0	0.0	0.0	0.0	499.0	-0.532	0.059	
14.0	0.0	0.0	0.0	0.0	498.0	-0.538	0.094	
15.0	0.0	0.0	0.0	0.0	496.0	-0.541	0.035	
0.0	0.0	0.0	0.0	0.0	497.0	-0.548	0.056	
1.0	0.0	0.0	0.0	0.0	499.0	-0.548	0.123	
2.0	0.0	0.0	0.0	0.0	499.0	-0.548	0.105	
3.0	0.0	0.0	0.0	0.0	501.0	-0.541	0.044	
4.0	0.0	0.0	0.0	0.0	503.0	-0.538	-0.023	
5.0	0.0	0.0	0.0	0.0	505.0	-0.525	-0.103	
6.0	0.0	0.0	0.0	0.0	508.0	-0.509	-0.146	
7.0	0.0	0.0	0.0	0.0	510.0	-0.49	-0.17	
8.0	0.0	0.0	0.0	0.0	510.0	-0.471	-0.103	
9.0	0.0	0.0	0.0	0.0	508.0	-0.454	-0.188	
10.0	0.0	0.0	0.0	0.0	508.0	-0.438	0.0	
11.0	0.0	0.0	0.0	0.0	509.0	-0.425	0.712	
12.0	0.0	0.0	0.0	0.0	508.0	-0.409	1.491	
13.0	0.0	0.0	0.0	0.0	507.0	-0.39	1.277	
14.0	0.0	0.0	0.0	0.0	506.0	-0.371	0.328	
15.0	0.0	0.0	0.0	0.0	504.0	-0.354	-0.313	
0.0	0.0	0.0	0.0	0.0	503.0	-0.335	-0.507	
1.0	0.0	0.0	0.0	0.0	502.0	-0.309	-0.486	
2.0	0.0	0.0	0.0	0.0	500.0	-0.29	-0.483	
3.0	0.0	0.0	0.0	0.0	499.0	-0.277	-0.48	
4.0	0.0	0.0	0.0	0.0	499.0	-0.261	-0.354	
5.0	0.0	0.0	0.0	0.0	499.0	-0.245	-0.272	
6.0	0.0	0.0	0.0	0.0	498.0	-0.229	-0.249	
7.0	0.0	0.0	0.0	0.0	498.0	-0.209	-0.205	
8.0	0.0	0.0	0.0	0.0	497.0	-0.197	-0.205	
9.0	0.0	0.0	0.0	0.0	496.0	-0.187	-0.161	
10.0	0.0	0.0	0.0	0.0	497.0	-0.187	-0.155	
11.0	0.0	0.0	0.0	0.0	498.0	-0.19	-0.082	
12.0	0.0	0.0	0.0	0.0	500.0	-0.203	-0.059	
13.0	0.0	0.0	0.0	0.0	501.0	-0.219	0.0	
14.0	0.0	0.0	0.0	0.0	501.0	-0.235	0.018	
15.0	0.0	0.0	0.0	0.0	500.0	-0.255	0.12	
0.0	0.0	0.0	0.0	0.0	499.0	-0.274	0.111	
1.0	0.0	0.0	0.0	0.0	498.0	-0.293	0.082	
2.0	0.0	0.0	0.0	0.0	496.0	-0.313	0.035	
3.0	0.0	0.0	0.0	0.0	495.0	-0.332	0.064	
4.0	0.0	0.0	0.0	0.0	497.0	-0.351	-0.012	
5.0	0.0	0.0	0.0	0.0	499.0	-0.371	-0.144	
6.0	0.0	0.0	0.0	0.0	501.0	-0.393	-0.105	
7.0	0.0	0.0	0.0	0.0	502.0	-0.413	-0.19	
8.0	0.0	0.0	0.0	0.0	504.0	-0.429	-0.22	
9.0	0.0	0.0	0.0	0.0	506.0	-0.438	-0.267	
10.0	0.0	0.0	0.0	0.0	508.0	-0.448	-0.249	
11.0	0.0	0.0	0.0	0.0	510.0	-0.454	-0.188	
12.0	0.0	0.0	0.0	0.0	511.0	-0.458	-0.152	
13.0	0.0	0.0	0.0	0.0	513.0	-0.458	-0.12	
14.0	0.0	0.0	0.0	0.0	514.0	-0.454	-0.111	
15.0	0.0	0.0	0.0	0.0	515.0	-0.454	-0.111	
0.0	0.0	0.0	0.0	0.0	515.0	-0.448	-0.097	
1.0	0.0	0.0	0.0	0.0	515.0	-0.442	-0.047	
2.0	0.0	0.0	0.0	0.0	515.0	-0.442	-0.062	
3.0	0.0	0.0	0.0	0.0	513.0	-0.438	-0.032	
4.0	0.0	0.0	0.0	0.0	514.0	-0.432	-0.029	
5.0	0.0	0.0	0.0	0.0	517.0	-0.425	-0.029	
6.0	0.0	0.0	0.0	0.0	518.0	-0.432	-0.006	
7.0	0.0	0.0	0.0	0.0	519.0	-0.445	-0.026	
8.0	0.0	0.0	0.0	0.0	518.0	-0.471	-0.047	
9.0	0.0	0.0	0.0	0.0	519.0	-0.503	-0.097	
10.0	0.0	0.0	0.0	0.0	518.0	-0.529	-0.12	
11.0	0.0	0.0	0.0	0.0	516.0	-0.551	-0.144	
12.0	0.0	0.0	0.0	0.0	513.0	-0.57	-0.053	
13.0	0.0	0.0	0.0	0.0	512.0	-0.587	0.07	
14.0	0.0	0.0	0.0	0.0	509.0	-0.599	0.079	
15.0	0.0	0.0	0.0	0.0	507.0	-0.609	0.059	
0.0	0.0	0.0	0.0	0.0	505.0	-0.616	0.123	
1.0	0.0	0.0	0.0	0.0	504.0	-0.616	0.19	
2.0	0.0	0.0	0.0	0.0	502.0	-0.616	0.249	
3.0	0.0	0.0	0.0	0.0	500.0	-0.609	0.284	
4.0	0.0	0.0	0.0	0.0	500.0	-0.606	0.319	
5.0	0.0	0.0	0.0	0.0	500.0	-0.606	0.29	
6.0	0.0	0.0	0.0	0.0	502.0	-0.603	0.161	
7.0	0.0	0.0	0.0	0.0	504.0	-0.599	-0.015	
8.0	0.0	0.0	0.0	0.0	506.0	-0.59	0.021	
9.0	0.0	0.0	0.0	0.0	507.0	-0.577	0.009	
10.0	0.0	0.0	0.0	0.0	506.0	-0.561	0.041	
11.0	0.0	0.0	0.0	0.0	508.0	-0.548	-0.006	
12.0	0.0	0.0	0.0	0.0	508.0	-0.535	-0.006	
13.0	0.0	0.0	0.0	0.0	508.0	-0.525	0.533	
14.0	0.0	0.0	0.0	0.0	508.0	-0.509	1.321	
15.0	0.0	0.0	0.0	0.0	509.0	-0.493	1.485	
0.0	0.0	0.0	0.0	0.0	508.0	-0.477	0.621	
1.0	0.0	0.0	0.0	0.0	508.0	-0.461	-0.141	
2.0	0.0	0.0	0.0	0.0	507.0	-0.438	-0.542	
3.0	0.0	0.0	0.0	0.0	504.0	-0.416	-0.554	
4.0	0.0	0.0	0.0	0.0	501.0	-0.393	-0.53	
5.0	0.0	0.0	0.0	0.0	500.0	-0.374	-0.551	
6.0	0.0	0.0	0.0	0.0	501.0	-0.348	-0.472	
7.0	0.0	0.0	0.0	0.0	500.0	-0.319	-0.437	
8.0	0.0	0.0	0.0	0.0	499.0	-0.293	-0.357	
9.0	0.0	0.0	0.0	0.0	499.0	-0.264	-0.299	
10.0	0.0	0.0	0.0	0.0	499.0	-0.251	-0.313	
11.0	0.0	0.0	0.0	0.0	499.0	-0.251	-0.167	
12.0	0.0	0.0	0.0	0.0	498.0	-0.264	-0.132	
13.0	0.0	0.0	0.0	0.0	498.0	-0.287	-0.117	
14.0	0.0	0.0	0.0	0.0	499.0	-0.309	-0.079	
15.0	0.0	0.0	0.0	0.0	498.0	-0.332	-0.053	
0.0	0.0	0.0	0.0	0.0	499.0	-0.351	-0.032	
1.0	0.0	0.0	0.0	0.0	500.0	-0.361	0.044	
2.0	0.0	0.0	0.0	0.0	501.0	-0.364	0.035	
3.0	0.0	0.0	0.0	0.0	501.0	-0.364	0.135	
4.0	0.0	0.0	0.0	0.0	501.0	-0.354	0.117	
5.0	0.0	0.0	0.0	0.0	504.0	-0.345	0.062	
6.0	0.0	0.0	0.0	0.0	505.0	-0.335	0.003	
7.0	0.0	0.0	0.0	0.0	506.0	-0.329	0.0	
8.0	0.0	0.0	0.0	0.0	506.0	-0.322	-0.085	
9.0	0.0	0.0	0.0	0.0	508.0	-0.316	-0.158	
10.0	0.0	0.0	0.0	0.0	510.0	-0.316	-0.179	
11.0	0.0	0.0	0.0	0.0	512.0	-0.313	-0.226	
12.0	0.0	0.0	0.0	0.0	513.0	-0.309	-0.22	
13.0	0.0	0.0	0.0	0.0	514.0	-0.313	-0.258	
14.0	0.0	0.0	0.0	0.0	514.0	-0.313	-0.193	
15.0	0.0	0.0	0.0	0.0	515.0	-0.313	-0.193	
0.0	0.0	0.0	0.0	0.0	517.0	-0.309	-0.161	
1.0	0.0	0.0	0.0	0.0	517.0	-0.303	-0.141	
2.0	0.0	0.0	0.0	0.0	518.0	-0.29	-0.082	
3.0	0.0	0.0	0.0	0.0	518.0	-0.277	-0.091	
4.0	0.0	0.0	0.0	0.0	517.0	-0.264	-0.059	
5.0	0.0	0.0	0.0	0.0	516.0	-0.251	-0.006	
6.0	0.0	0.0	0.0	0.0	517.0	-0.242	0.032	
7.0	0.0	0.0	0.0	0.0	516.0	-0.232	0.012	
8.0	0.0	0.0	0.0	0.0	515.0	-0.229	0.035	
9.0	0.0	0.0	0.0	0.0	513.0	-0.226	0.009	
10.0	0.0	0.0	0.0	0.0	512.0	-0.226	0.003	
11.0	0.0	0.0	0.0	0.0	512.0	-0.229	0.041	
12.0	0.0	0.0	0.0	0.0	510.0	-0.232	0.023	
13.0	0.0	0.0	0.0	0.0	509.0	-0.232	-0.026	
14.0	0.0	0.0	0.0	0.0	510.0	-0.232	-0.009	
15.0	0.0	0.0	0.0	0.0	511.0	-0.232	0.05	
0.0	0.0	0.0	0.0	0.0	511.0	-0.232	0.082	
1.0	0.0	0.0	0.0	0.0	511.0	-0.226	0.05	
2.0	0.0	0.0	0.0	0.0	511.0	-0.219	0.149	
3.0	0.0	0.0	0.0	0.0	510.0	-0.209	0.176	
4.0	0.0	0.0	0.0	0.0	509.0	-0.2	0.193	
5.0	0.0	0.0	0.0	0.0	509.0	-0.193	0.053	
6.0	0.0	0.0	0.0	0.0	510.0	-0.187	0.064	
7.0	0.0	0.0	0.0	0.0	510.0	-0.18	-0.038	
8.0	0.0	0.0	0.0	0.0	509.0	-0.171	-0.053	
9.0	0.0	0.0	0.0	0.0	509.0	-0.164	-0.105	
10.0	0.0	0.0	0.0	0.0	509.0	-0.158	-0.067	
11.0	0.0	0.0	0.0	0.0	507.0	-0.151	-0.076	
12.0	0.0	0.0	0.0	0.0	507.0	-0.145	0.164	
13.0	0.0	0.0	0.0	0.0	508.0	-0.135	0.935	
14.0	0.0	0.0	0.0	0.0	507.0	-0.129	1.465	
15.0	0.0	0.0	0.0	0.0	506.0	-0.119	1.005	
0.0	0.0	0.0	0.0	0.0	506.0	-0.113	0.229	
1.0	0.0	0.0	0.0	0.0	505.0	-0.116	-0.267	
2.0	0.0	0.0	0.0	0.0	503.0	-0.11	-0.466	
3.0	0.0	0.0	0.0	0.0	502.0	-0.106	-0.425	
4.0	0.0	0.0	0.0	0.0	501.0	-0.1	-0.387	
5.0	0.0	0.0	0.0	0.0	503.0	-0.081	-0.349	
6.0	0.0	0.0	0.0	0.0	503.0	-0.064	-0.319	
7.0	0.0	0.0	0.0	0.0	502.0	-0.048	-0.211	
8.0	0.0	0.0	0.0	0.0	501.0	-0.032	-0.217	
9.0	0.0	0.0	0.0	0.0	501.0	-0.023	-0.182	
10.0	0.0	0.0	0.0	0.0	502.0	-0.023	-0.082	
11.0	0.0	0.0	0.0	0.0	504.0	-0.035	-0.047	
12.0	0.0	0.0	0.0	0.0	504.0	-0.055	-0.021	
13.0	0.0	0.0	0.0	0.0	505.0	-0.081	-0.062	
14.0	0.0	0.0	0.0	0.0	506.0	-0.103	0.023	
15.0	0.0	0.0	0.0	0.0	507.0	-0.126	0.044	
0.0	0.0	0.0	0.0	0.0	505.0	-0.145	0.094	
1.0	0.0	0.0	0.0	0.0	505.0	-0.158	0.088	
2.0	0.0	0.0	0.0	0.0	504.0	-0.164	0.067	
3.0	0.0	0.0	0.0	0.0	504.0	-0.168	0.149	
4.0	0.0	0.0	0.0	0.0	505.0	-0.168	0.132	
5.0	0.0	0.0	0.0	0.0	504.0	-0.161	0.114	
6.0	0.0	0.0	0.0	0.0	504.0	-0.158	0.018	
7.0	0.0	0.0	0.0	0.0	504.0	-0.158	-0.029	
8.0	0.0	0.0	0.0	0.0	504.0	-0.158	-0.082	
9.0	0.0	0.0	0.0	0.0	504.0	-0.155	-0.111	
10.0	0.0	0.0	0.0	0.0	503.0	-0.148	-0.164	
11.0	0.0	0.0	0.0	0.0	505.0	-0.142	-0.182	
12.0	0.0	0.0	0.0	0.0	505.0	-0.132	-0.164	
13.0	0.0	0.0	0.0	0.0	507.0	-0.126	-0.135	
14.0	0.0	0.0	0.0	0.0	509.0	-0.122	-0.144	
15.0	0.0	0.0	0.0	0.0	511.0	-0.116	-0.149	
0.0	0.0	0.0	0.0	0.0	513.0	-0.103	-0.179	
1.0	0.0	0.0	0.0	0.0	514.0	-0.081	-0.132	
2.0	0.0	0.0	0.0	0.0	513.0	-0.042	-0.161	
3.0	0.0	0.0	0.0	0.0	513.0	0.006	-0.185	
4.0	0.0	0.0	0.0	0.0	515.0	0.061	-0.141	
5.0	0.0	0.0	0.0	0.0	516.0	0.119	-0.123	
6.0	0.0	0.0	0.0	0.0	517.0	0.177	-0.103	
7.0	0.0	0.0	0.0	0.0	517.0	0.232	-0.044	
8.0	0.0	0.0	0.0	0.0	518.0	0.284	-0.018	
9.0	0.0	0.0	0.0	0.0	517.0	0.329	-0.035	
10.0	0.0	0.0	0.0	0.0	516.0	0.371	0.006	
11.0	0.0	0.0	0.0	0.0	515.0	0.413	-0.003	
12.0	0.0	0.0	0.0	0.0	515.0	0.451	-0.038	
13.0	0.0	0.0	0.0	0.0	513.0	0.49	-0.023	
14.0	0.0	0.0	0.0	0.0	513.0	0.525	0.003	
15.0	0.0	0.0	0.0	0.0	513.0	0.561	0.079	
0.0	0.0	0.0	0.0	0.0	511.0	0.59	0.108	
1.0	0.0	0.0	0.0	0.0	511.0	0.612	0.114	
2.0	0.0	0.0	0.0	0.0	510.0	0.635	0.237	
3.0	0.0	0.0	0.0	0.0	512.0	0.654	0.249	
4.0	0.0	0.0	0.0	0.0	513.0	0.674	0.284	
5.0	0.0	0.0	0.0	0.0	514.0	0.693	0.199	
6.0	0.0	0.0	0.0	0.0	513.0	0.709	0.091	
7.0	0.0	0.0	0.0	0.0	513.0	0.728	0.073	
8.0	0.0	0.0	0.0	0.0	512.0	0.748	0.056	
9.0	0.0	0.0	0.0	0.0	512.0	0.764	0.056	
10.0	0.0	0.0	0.0	0.0	510.0	0.777	-0.015	
11.0	0.0	0.0	0.0	0.0	510.0	0.783	0.041	
12.0	0.0	0.0	0.0	0.0	510.0	0.79	0.63	
13.0	0.0	0.0	0.0	0.0	508.0	0.796	1.456	
14.0	0.0	0.0	0.0	0.0	508.0	0.799	1.494	
15.0	0.0	0.0	0.0	0.0	509.0	0.806	0.656	
0.0	0.0	0.0	0.0	0.0	507.0	0.806	-0.094	
1.0	0.0	0.0	0.0	0.0	506.0	0.809	-0.457	
2.0	0.0	0.0	0.0	0.0	508.0	0.815	-0.398	
3.0	0.0	0.0	0.0	0.0	510.0	0.815	-0.442	
4.0	0.0	0.0	0.0	0.0	512.0	0.815	-0.457	
5.0	0.0	0.0	0.0	0.0	512.0	0.809	-0.419	
6.0	0.0	0.0	0.0	0.0	512.0	0.796	-0.334	
7.0	0.0	0.0	0.0	0.0	513.0	0.793	-0.255	
8.0	0.0	0.0	0.0	0.0	513.0	0.786	-0.214	
9.0	0.0	0.0	0.0	0.0	514.0	0.773	-0.161	
10.0	0.0	0.0	0.0	0.0	515.0	0.754	-0.149	
11.0	0.0	0.0	0.0	0.0	516.0	0.728	-0.097	
12.0	0.0	0.0	0.0	0.0	515.0	0.696	-0.1	
13.0	0.0	0.0	0.0	0.0	513.0	0.657	-0.053	
14.0	0.0	0.0	0.0	0.0	511.0	0.619	-0.082	
15.0	0.0	0.0	0.0	0.0	509.0	0.577	-0.026	
0.0	0.0	0.0	0.0	0.0	510.0	0.532	0.079	
1.0	0.0	0.0	0.0	0.0	510.0	0.49	0.029	
2.0	0.0	0.0	0.0	0.0	507.0	0.451	0.0	
3.0	0.0	0.0	0.0	0.0	506.0	0.409	0.003	
4.0	0.0	0.0	0.0	0.0	505.0	0.374	-0.009	
5.0	0.0	0.0	0.0	0.0	504.0	0.342	-0.07	
6.0	0.0	0.0	0.0	0.0	502.0	0.306	-0.149	
7.0	0.0	0.0	0.0	0.0	501.0	0.274	-0.231	
8.0	0.0	0.0	0.0	0.0	502.0	0.238	-0.29	
9.0	0.0	0.0	0.0	0.0	502.0	0.203	-0.302	
10.0	0.0	0.0	0.0	0.0	503.0	0.168	-0.249	
11.0	0.0	0.0	0.0	0.0	504.0	0.132	-0.205	
12.0	0.0	0.0	0.0	0.0	507.0	0.097	-0.211	
13.0	0.0	0.0	0.0	0.0	511.0	0.061	-0.185	
14.0	0.0	0.0	0.0	0.0	513.0	0.023	-0.211	
15.0	0.0	0.0	0.0	0.0	516.0	-0.016	-0.138	
0.0	0.0	0.0	0.0	0.0	519.0	-0.052	-0.129	
1.0	0.0	0.0	0.0	0.0	520.0	-0.081	-0.114	
2.0	0.0	0.0	0.0	0.0	519.0	-0.106	-0.064	
3.0	0.0	0.0	0.0	0.0	520.0	-0.129	-0.018	
4.0	0.0	0.0	0.0	0.0	520.0	-0.148	0.032	
5.0	0.0	0.0	0.0	0.0	523.0	-0.168	0.047	
6.0	0.0	0.0	0.0	0.0	525.0	-0.18	0.032	
7.0	0.0	0.0	0.0	0.0	527.0	-0.193	0.088	
8.0	0.0	0.0	0.0	0.0	527.0	-0.206	0.064	
9.0	0.0	0.0	0.0	0.0	530.0	-0.219	0.032	
10.0	0.0	0.0	0.0	0.0	531.0	-0.229	0.047	
11.0	0.0	0.0	0.0	0.0	531.0	-0.242	0.038	
12.0	0.0	0.0	0.0	0.0	531.0	-0.248	-0.035	
13.0	0.0	0.0	0.0	0.0	529.0	-0.248	0.035	
14.0	0.0	0.0	0.0	0.0	529.0	-0.248	0.0	
15.0	0.0	0.0	0.0	0.0	527.0	-0.245	0.044	
0.0	0.0	0.0	0.0	0.0	527.0	-0.238	0.088	
1.0	0.0	0.0	0.0	0.0	524.0	-0.232	0.073	
2.0	0.0	0.0	0.0	0.0	523.0	-0.226	0.062	
3.0	0.0	0.0	0.0	0.0	521.0	-0.219	0.144	
4.0	0.0	0.0	0.0	0.0	518.0	-0.213	0.214	
5.0	0.0	0.0	0.0	0.0	515.0	-0.206	0.27	
6.0	0.0	0.0	0.0	0.0	515.0	-0.2	0.214	
7.0	0.0	0.0	0.0	0.0	514.0	-0.193	0.114	
8.0	0.0	0.0	0.0	0.0	512.0	-0.19	0.047	
9.0	0.0	0.0	0.0	0.0	513.0	-0.184	0.009	
10.0	0.0	0.0	0.0	0.0	514.0	-0.18	0.023	
11.0	0.0	0.0	0.0	0.0	513.0	-0.174	0.006	
12.0	0.0	0.0	0.0	0.0	514.0	-0.164	-0.094	
13.0	0.0	0.0	0.0	0.0	514.0	-0.155	0.258	
14.0	0.0	0.0	0.0	0.0	514.0	-0.145	1.219	
15.0	0.0	0.0	0.0	0.0	512.0	-0.132	1.494	
0.0	0.0	0.0	0.0	0.0	515.0	-0.119	1.084	
1.0	0.0	0.0	0.0	0.0	518.0	-0.113	0.126	
2.0	0.0	0.0	0.0	0.0	518.0	-0.103	-0.407	
3.0	0.0	0.0	0.0	0.0	517.0	-0.084	-0.448	
4.0	0.0	0.0	0.0	0.0	517.0	-0.064	-0.425	
5.0	0.0	0.0	0.0	0.0	517.0	-0.048	-0.439	
6.0	0.0	0.0	0.0	0.0	516.0	-0.039	-0.475	
7.0	0.0	0.0	0.0	0.0	516.0	-0.032	-0.308	
8.0	0.0	0.0	0.0	0.0	516.0	-0.023	-0.284	
9.0	0.0	0.0	0.0	0.0	517.0	-0.01	-0.29	
10.0	0.0	0.0	0.0	0.0	516.0	0.006	-0.164	
11.0	0.0	0.0	0.0	0.0	514.0	0.026	-0.12	
12.0	0.0	0.0	0.0	0.0	512.0	0.045	-0.152	
13.0	0.0	0.0	0.0	0.0	511.0	0.068	-0.091	
14.0	0.0	0.0	0.0	0.0	511.0	0.09	-0.108	
15.0	0.0	0.0	0.0	0.0	509.0	0.116	-0.111	
0.0	0.0	0.0	0.0	0.0	507.0	0.142	-0.103	
1.0	0.0	0.0	0.0	0.0	504.0	0.164	-0.123	
2.0	0.0	0.0	0.0	0.0	502.0	0.19	-0.088	
3.0	0.0	0.0	0.0	0.0	501.0	0.213	-0.038	
4.0	0.0	0.0	0.0	0.0	502.0	0.235	-0.012	
5.0	0.0	0.0	0.0	0.0	504.0	0.258	-0.026	
6.0	0.0	0.0	0.0	0.0	506.0	0.277	-0.023	
7.0	0.0	0.0	0.0	0.0	507.0	0.296	-0.097	
8.0	0.0	0.0	0.0	0.0	509.0	0.313	-0.129	
9.0	0.0	0.0	0.0	0.0	512.0	0.329	-0.229	
10.0	0.0	0.0	0.0	0.0	513.0	0.338	-0.267	
11.0	0.0	0.0	0.0	0.0	515.0	0.351	-0.284	
12.0	0.0	0.0	0.0	0.0	517.0	0.361	-0.27	
13.0	0.0	0.0	0.0	0.0	519.0	0.367	-0.243	
14.0	0.0	0.0	0.0	0.0	523.0	0.374	-0.179	
15.0	0.0	0.0	0.0	0.0	526.0	0.377	-0.135	
0.0	0.0	0.0	0.0	0.0	526.0	0.38	-0.132	
1.0	0.0	0.0	0.0	0.0	526.0	0.38	-0.064	
2.0	0.0	0.0	0.0	0.0	524.0	0.383	-0.088	
3.0	0.0	0.0	0.0	0.0	525.0	0.387	-0.047	
4.0	0.0	0.0	0.0	0.0	526.0	0.396	-0.012	
5.0	0.0	0.0	0.0	0.0	526.0	0.403	0.0	
6.0	0.0	0.0	0.0	0.0	527.0	0.413	-0.006	
7.0	0.0	0.0	0.0	0.0	526.0	0.422	-0.032	
8.0	0.0	0.0	0.0	0.0	527.0	0.432	0.029	
9.0	0.0	0.0	0.0	0.0	528.0	0.442	0.018	
10.0	0.0	0.0	0.0	0.0	526.0	0.454	0.015	
11.0	0.0	0.0	0.0	0.0	525.0	0.464	0.003	
12.0	0.0	0.0	0.0	0.0	526.0	0.48	-0.009	
13.0	0.0	0.0	0.0	0.0	526.0	0.49	-0.006	
14.0	0.0	0.0	0.0	0.0	524.0	0.5	0.003	
15.0	0.0	0.0	0.0	0.0	523.0	0.509	0.009	
0.0	0.0	0.0	0.0	0.0	524.0	0.512	-0.047	
1.0	0.0	0.0	0.0	0.0	527.0	0.516	-0.094	
2.0	0.0	0.0	0.0	0.0	527.0	0.509	-0.097	
3.0	0.0	0.0	0.0	0.0	526.0	0.5	-0.047	
4.0	0.0	0.0	0.0	0.0	526.0	0.483	-0.026	
5.0	0.0	0.0	0.0	0.0	527.0	0.458	0.026	
6.0	0.0	0.0	0.0	0.0	526.0	0.422	0.062	
7.0	0.0	0.0	0.0	0.0	524.0	0.387	0.179	
8.0	0.0	0.0	0.0	0.0	522.0	0.348	0.088	
9.0	0.0	0.0	0.0	0.0	521.0	0.306	-0.064	
10.0	0.0	0.0	0.0	0.0	520.0	0.267	-0.138	
11.0	0.0	0.0	0.0	0.0	519.0	0.229	-0.135	
12.0	0.0	0.0	0.0	0.0	516.0	0.193	-0.138	
13.0	0.0	0.0	0.0	0.0	515.0	0.155	-0.179	
14.0	0.0	0.0	0.0	0.0	511.0	0.116	-0.176	
15.0	0.0	0.0	0.0	0.0	508.0	0.077	0.305	
0.0	0.0	0.0	0.0	0.0	508.0	0.035	1.274	
1.0	0.0	0.0	0.0	0.0	511.0	-0.006	1.494	
2.0	0.0	0.0	0.0	0.0	512.0	-0.045	0.712	
3.0	0.0	0.0	0.0	0.0	511.0	-0.09	-0.108	
4.0	0.0	0.0	0.0	0.0	511.0	-0.132	-0.434	
5.0	0.0	0.0	0.0	0.0	513.0	-0.168	-0.475	
6.0	0.0	0.0	0.0	0.0	513.0	-0.197	-0.413	
7.0	0.0	0.0	0.0	0.0	513.0	-0.232	-0.422	
8.0	0.0	0.0	0.0	0.0	513.0	-0.271	-0.319	
9.0	0.0	0.0	0.0	0.0	514.0	-0.306	-0.24	
10.0	0.0	0.0	0.0	0.0	515.0	-0.338	-0.179	
11.0	0.0	0.0	0.0	0.0	513.0	-0.367	-0.152	
12.0	0.0	0.0	0.0	0.0	512.0	-0.39	-0.056	
13.0	0.0	0.0	0.0	0.0	511.0	-0.413	-0.05	
14.0	0.0	0.0	0.0	0.0	511.0	-0.442	0.029	
15.0	0.0	0.0	0.0	0.0	510.0	-0.467	0.012	
0.0	0.0	0.0	0.0	0.0	508.0	-0.493	0.059	
1.0	0.0	0.0	0.0	0.0	505.0	-0.522	0.097	
2.0	0.0	0.0	0.0	0.0	504.0	-0.548	0.167	
3.0	0.0	0.0	0.0	0.0	503.0	-0.574	0.164	
4.0	0.0	0.0	0.0	0.0	503.0	-0.603	0.211	
5.0	0.0	0.0	0.0	0.0	502.0	-0.632	0.214	
6.0	0.0	0.0	0.0	0.0	502.0	-0.661	0.196	
7.0	0.0	0.0	0.0	0.0	502.0	-0.686	0.223	
8.0	0.0	0.0	0.0	0.0	505.0	-0.709	0.196	
9.0	0.0	0.0	0.0	0.0	510.0	-0.728	0.114	
10.0	0.0	0.0	0.0	0.0	511.0	-0.748	0.0	
11.0	0.0	0.0	0.0	0.0	512.0	-0.767	-0.079	
12.0	0.0	0.0	0.0	0.0	513.0	-0.786	-0.114	
13.0	0.0	0.0	0.0	0.0	515.0	-0.806	-0.182	
14.0	0.0	0.0	0.0	0.0	519.0	-0.822	-0.129	
15.0	0.0	0.0	0.0	0.0	521.0	-0.831	-0.161	
0.0	0.0	0.0	0.0	0.0	521.0	-0.848	-0.135	
1.0	0.0	0.0	0.0	0.0	521.0	-0.854	-0.185	
2.0	0.0	0.0	0.0	0.0	521.0	-0.86	-0.179	
3.0	0.0	0.0	0.0	0.0	522.0	-0.87	-0.158	
4.0	0.0	0.0	0.0	0.0	523.0	-0.883	-0.196	
5.0	0.0	0.0	0.0	0.0	524.0	-0.896	-0.085	
6.0	0.0	0.0	0.0	0.0	526.0	-0.912	-0.041	
7.0	0.0	0.0	0.0	0.0	528.0	-0.931	-0.07	
8.0	0.0	0.0	0.0	0.0	529.0	-0.954	-0.059	
9.0	0.0	0.0	0.0	0.0	533.0	-0.98	-0.023	
10.0	0.0	0.0	0.0	0.0	532.0	-1.002	-0.012	
11.0	0.0	0.0	0.0	0.0	532.0	-1.018	-0.023	
12.0	0.0	0.0	0.0	0.0	532.0	-1.031	0.012	
13.0	0.0	0.0	0.0	0.0	532.0	-1.047	0.021	
14.0	0.0	0.0	0.0	0.0	533.0	-1.057	0.003	
15.0	0.0	0.0	0.0	0.0	532.0	-1.057	-0.015	
0.0	0.0	0.0	0.0	0.0	530.0	-1.054	-0.015	
1.0	0.0	0.0	0.0	0.0	528.0	-1.047	-0.015	
2.0	0.0	0.0	0.0	0.0	525.0	-1.044	0.076	
3.0	0.0	0.0	0.0	0.0	524.0	-1.038	0.05	
4.0	0.0	0.0	0.0	0.0	523.0	-1.031	0.123	
5.0	0.0	0.0	0.0	0.0	524.0	-1.031	0.082	
6.0	0.0	0.0	0.0	0.0	523.0	-1.031	0.12	
7.0	0.0	0.0	0.0	0.0	522.0	-1.031	0.167	
8.0	0.0	0.0	0.0	0.0	521.0	-1.031	0.073	
9.0	0.0	0.0	0.0	0.0	519.0	-1.031	0.044	
10.0	0.0	0.0	0.0	0.0	519.0	-1.028	-0.05	
11.0	0.0	0.0	0.0	0.0	518.0	-1.015	-0.07	
12.0	0.0	0.0	0.0	0.0	515.0	-1.009	-0.07	
13.0	0.0	0.0	0.0	0.0	516.0	-0.999	-0.079	
14.0	0.0	0.0	0.0	0.0	516.0	-0.983	-0.079	
15.0	0.0	0.0	0.0	0.0	516.0	-0.97	-0.114	
0.0	0.0	0.0	0.0	0.0	518.0	-0.951	0.369	
1.0	0.0	0.0	0.0	0.0	518.0	-0.928	1.228	
2.0	0.0	0.0	0.0	0.0	516.0	-0.896	1.459	
3.0	0.0	0.0	0.0	0.0	516.0	-0.87	0.683	
4.0	0.0	0.0	0.0	0.0	518.0	-0.848	-0.044	
5.0	0.0	0.0	0.0	0.0	518.0	-0.831	-0.448	
6.0	0.0	0.0	0.0	0.0	519.0	-0.812	-0.457	
7.0	0.0	0.0	0.0	0.0	516.0	-0.802	-0.428	
8.0	0.0	0.0	0.0	0.0	517.0	-0.799	-0.372	
9.0	0.0	0.0	0.0	0.0	516.0	-0.793	-0.293	
10.0	0.0	0.0	0.0	0.0	514.0	-0.796	-0.234	
11.0	0.0	0.0	0.0	0.0	513.0	-0.799	-0.211	
12.0	0.0	0.0	0.0	0.0	511.0	-0.799	-0.085	
13.0	0.0	0.0	0.0	0.0	509.0	-0.812	-0.053	
14.0	0.0	0.0	0.0	0.0	508.0	-0.831	-0.006	
15.0	0.0	0.0	0.0	0.0	507.0	-0.864	0.085	
0.0	0.0	0.0	0.0	0.0	506.0	-0.909	0.094	
1.0	0.0	0.0	0.0	0.0	504.0	-0.96	0.103	
2.0	0.0	0.0	0.0	0.0	503.0	-1.012	0.111	
3.0	0.0	0.0	0.0	0.0	504.0	-1.063	0.176	
4.0	0.0	0.0	0.0	0.0	505.0	-1.105	0.094	
5.0	0.0	0.0	0.0	0.0	509.0	-1.128	0.229	
6.0	0.0	0.0	0.0	0.0	510.0	-1.138	0.234	
7.0	0.0	0.0	0.0	0.0	513.0	-1.147	0.214	
8.0	0.0	0.0	0.0	0.0	515.0	-1.141	0.214	
9.0	0.0	0.0	0.0	0.0	518.0	-1.134	0.105	
10.0	0.0	0.0	0.0	0.0	519.0	-1.125	0.094	
11.0	0.0	0.0	0.0	0.0	521.0	-1.109	-0.05	
12.0	0.0	0.0	0.0	0.0	521.0	-1.089	-0.149	
13.0	0.0	0.0	0.0	0.0	522.0	-1.067	-0.243	
14.0	0.0	0.0	0.0	0.0	523.0	-1.041	-0.293	
15.0	0.0	0.0	0.0	0.0	526.0	-1.015	-0.305	
0.0	0.0	0.0	0.0	0.0	526.0	-0.989	-0.319	
1.0	0.0	0.0	0.0	0.0	528.0	-0.964	-0.305	
2.0	0.0	0.0	0.0	0.0	528.0	-0.941	-0.24	
3.0	0.0	0.0	0.0	0.0	529.0	-0.918	-0.22	
4.0	0.0	0.0	0.0	0.0	529.0	-0.899	-0.208	
5.0	0.0	0.0	0.0	0.0	528.0	-0.87	-0.185	
6.0	0.0	0.0	0.0	0.0	529.0	-0.854	-0.141	
7.0	0.0	0.0	0.0	0.0	529.0	-0.831	-0.123	
8.0	0.0	0.0	0.0	0.0	529.0	-0.812	-0.1	
9.0	0.0	0.0	0.0	0.0	529.0	-0.793	-0.059	
10.0	0.0	0.0	0.0	0.0	527.0	-0.777	-0.062	
11.0	0.0	0.0	0.0	0.0	526.0	-0.764	-0.108	
12.0	0.0	0.0	0.0	0.0	526.0	-0.751	-0.111	
13.0	0.0	0.0	0.0	0.0	524.0	-0.738	-0.091	
14.0	0.0	0.0	0.0	0.0	524.0	-0.732	-0.082	
15.0	0.0	0.0	0.0	0.0	524.0	-0.719	-0.038	
0.0	0.0	0.0	0.0	0.0	525.0	-0.709	-0.123	
1.0	0.0	0.0	0.0	0.0	525.0	-0.703	-0.05	
2.0	0.0	0.0	0.0	0.0	524.0	-0.69	-0.021	
3.0	0.0	0.0	0.0	0.0	521.0	-0.677	0.056	
4.0	0.0	0.0	0.0	0.0	520.0	-0.664	0.018	
5.0	0.0	0.0	0.0	0.0	519.0	-0.657	0.088	
6.0	0.0	0.0	0.0	0.0	518.0	-0.645	0.1	
7.0	0.0	0.0	0.0	0.0	516.0	-0.638	0.141	
8.0	0.0	0.0	0.0	0.0	516.0	-0.625	0.082	
9.0	0.0	0.0	0.0	0.0	516.0	-0.616	0.044	
10.0	0.0	0.0	0.0	0.0	518.0	-0.599	-0.035	
11.0	0.0	0.0	0.0	0.0	518.0	-0.59	-0.047	
12.0	0.0	0.0	0.0	0.0	517.0	-0.58	-0.059	
13.0	0.0	0.0	0.0	0.0	517.0	-0.574	-0.082	
14.0	0.0	0.0	0.0	0.0	516.0	-0.57	-0.091	
15.0	0.0	0.0	0.0	0.0	516.0	-0.564	0.381	
0.0	0.0	0.0	0.0	0.0	517.0	-0.554	1.146	
1.0	0.0	0.0	0.0	0.0	516.0	-0.541	1.336	
2.0	0.0	0.0	0.0	0.0	516.0	-0.529	0.715	
3.0	0.0	0.0	0.0	0.0	515.0	-0.522	-0.009	
4.0	0.0	0.0	0.0	0.0	516.0	-0.516	-0.431	
5.0	0.0	0.0	0.0	0.0	515.0	-0.512	-0.428	
6.0	0.0	0.0	0.0	0.0	515.0	-0.506	-0.445	
7.0	0.0	0.0	0.0	0.0	513.0	-0.5	-0.445	
8.0	0.0	0.0	0.0	0.0	511.0	-0.477	-0.343	
9.0	0.0	0.0	0.0	0.0	512.0	-0.454	-0.302	
10.0	0.0	0.0	0.0	0.0	512.0	-0.432	-0.234	
11.0	0.0	0.0	0.0	0.0	513.0	-0.406	-0.214	
12.0	0.0	0.0	0.0	0.0	513.0	-0.383	-0.161	
13.0	0.0	0.0	0.0	0.0	514.0	-0.371	-0.094	
14.0	0.0	0.0	0.0	0.0	514.0	-0.364	-0.094	
15.0	0.0	0.0	0.0	0.0	513.0	-0.364	-0.047	
0.0	0.0	0.0	0.0	0.0	512.0	-0.367	-0.026	
1.0	0.0	0.0	0.0	0.0	511.0	-0.374	0.067	
2.0	0.0	0.0	0.0	0.0	509.0	-0.377	0.091	
3.0	0.0	0.0	0.0	0.0	508.0	-0.38	0.108	
4.0	0.0	0.0	0.0	0.0	506.0	-0.377	0.164	
5.0	0.0	0.0	0.0	0.0	505.0	-0.374	0.152	
6.0	0.0	0.0	0.0	0.0	505.0	-0.367	0.205	
7.0	0.0	0.0	0.0	0.0	506.0	-0.358	0.202	
8.0	0.0	0.0	0.0	0.0	507.0	-0.351	0.173	
9.0	0.0	0.0	0.0	0.0	510.0	-0.348	0.094	
10.0	0.0	0.0	0.0	0.0	511.0	-0.342	0.021	
11.0	0.0	0.0	0.0	0.0	513.0	-0.345	-0.023	
12.0	0.0	0.0	0.0	0.0	513.0	-0.348	-0.1	
13.0	0.0	0.0	0.0	0.0	516.0	-0.351	-0.073	
14.0	0.0	0.0	0.0	0.0	518.0	-0.358	-0.108	
15.0	0.0	0.0	0.0	0.0	520.0	-0.361	-0.114	
0.0	0.0	0.0	0.0	0.0	520.0	-0.364	-0.1	
1.0	0.0	0.0	0.0	0.0	523.0	-0.364	-0.094	
2.0	0.0	0.0	0.0	0.0	526.0	-0.367	-0.082	
3.0	0.0	0.0	0.0	0.0	527.0	-0.367	-0.038	
4.0	0.0	0.0	0.0	0.0	528.0	-0.367	0.021	
5.0	0.0	0.0	0.0	0.0	529.0	-0.364	0.021	
6.0	0.0	0.0	0.0	0.0	529.0	-0.354	0.067	
7.0	0.0	0.0	0.0	0.0	530.0	-0.345	0.035	
8.0	0.0	0.0	0.0	0.0	529.0	-0.335	0.07	
9.0	0.0	0.0	0.0	0.0	528.0	-0.322	0.056	
10.0	0.0	0.0	0.0	0.0	528.0	-0.313	0.0	
11.0	0.0	0.0	0.0	0.0	528.0	-0.306	0.015	
12.0	0.0	0.0	0.0	0.0	526.0	-0.293	0.003	
13.0	0.0	0.0	0.0	0.0	524.0	-0.28	-0.003	
14.0	0.0	0.0	0.0	0.0	524.0	-0.267	0.021	
15.0	0.0	0.0	0.0	0.0	524.0	-0.251	0.067	
0.0	0.0	0.0	0.0	0.0	524.0	-0.235	0.085	
1.0	0.0	0.0	0.0	0.0	525.0	-0.222	0.146	
2.0	0.0	0.0	0.0	0.0	526.0	-0.206	0.117	
3.0	0.0	0.0	0.0	0.0	525.0	-0.187	0.164	
4.0	0.0	0.0	0.0	0.0	525.0	-0.168	0.229	
5.0	0.0	0.0	0.0	0.0	524.0	-0.148	0.196	
6.0	0.0	0.0	0.0	0.0	524.0	-0.129	0.141	
7.0	0.0	0.0	0.0	0.0	522.0	-0.113	0.009	
8.0	0.0	0.0	0.0	0.0	522.0	-0.1	-0.053	
9.0	0.0	0.0	0.0	0.0	521.0	-0.081	-0.056	
10.0	0.0	0.0	0.0	0.0	520.0	-0.068	-0.05	
11.0	0.0	0.0	0.0	0.0	521.0	-0.052	-0.1	
12.0	0.0	0.0	0.0	0.0	519.0	-0.042	-0.132	
13.0	0.0	0.0	0.0	0.0	515.0	-0.029	0.123	
14.0	0.0	0.0	0.0	0.0	512.0	-0.023	0.967	
15.0	0.0	0.0	0.0	0.0	512.0	-0.01	1.494	
0.0	0.0	0.0	0.0	0.0	511.0	0.006	1.09	
1.0	0.0	0.0	0.0	0.0	510.0	0.023	0.246	
2.0	0.0	0.0	0.0	0.0	510.0	0.032	-0.322	
3.0	0.0	0.0	0.0	0.0	511.0	0.045	-0.533	
4.0	0.0	0.0	0.0	0.0	511.0	0.055	-0.387	
5.0	0.0	0.0	0.0	0.0	512.0	0.058	-0.393	
6.0	0.0	0.0	0.0	0.0	512.0	0.052	-0.366	
7.0	0.0	0.0	0.0	0.0	513.0	0.042	-0.337	
8.0	0.0	0.0	0.0	0.0	514.0	0.029	-0.261	
9.0	0.0	0.0	0.0	0.0	514.0	0.023	-0.19	
10.0	0.0	0.0	0.0	0.0	515.0	0.016	-0.108	
11.0	0.0	0.0	0.0	0.0	514.0	0.006	-0.094	
12.0	0.0	0.0	0.0	0.0	512.0	-0.01	-0.085	
13.0	0.0	0.0	0.0	0.0	510.0	-0.032	-0.059	
14.0	0.0	0.0	0.0	0.0	508.0	-0.061	0.044	
15.0	0.0	0.0	0.0	0.0	508.0	-0.097	0.088	
0.0	0.0	0.0	0.0	0.0	507.0	-0.135	0.129	
1.0	0.0	0.0	0.0	0.0	507.0	-0.171	0.199	
2.0	0.0	0.0	0.0	0.0	508.0	-0.209	0.246	
3.0	0.0	0.0	0.0	0.0	508.0	-0.245	0.258	
4.0	0.0	0.0	0.0	0.0	509.0	-0.28	0.252	
5.0	0.0	0.0	0.0	0.0	509.0	-0.309	0.234	
6.0	0.0	0.0	0.0	0.0	509.0	-0.338	0.193	
7.0	0.0	0.0	0.0	0.0	510.0	-0.367	0.05	
8.0	0.0	0.0	0.0	0.0	510.0	-0.4	0.05	
9.0	0.0	0.0	0.0	0.0	511.0	-0.435	-0.003	
10.0	0.0	0.0	0.0	0.0	512.0	-0.471	-0.105	
11.0	0.0	0.0	0.0	0.0	513.0	-0.509	-0.105	
12.0	0.0	0.0	0.0	0.0	516.0	-0.548	-0.132	
13.0	0.0	0.0	0.0	0.0	517.0	-0.59	-0.167	
14.0	0.0	0.0	0.0	0.0	519.0	-0.622	-0.105	
15.0	0.0	0.0	0.0	0.0	523.0	-0.661	-0.091	
0.0	0.0	0.0	0.0	0.0	524.0	-0.69	-0.103	
1.0	0.0	0.0	0.0	0.0	525.0	-0.719	-0.003	
2.0	0.0	0.0	0.0	0.0	527.0	-0.744	-0.05	
3.0	0.0	0.0	0.0	0.0	529.0	-0.761	-0.003	
4.0	0.0	0.0	0.0	0.0	530.0	-0.773	-0.041	
5.0	0.0	0.0	0.0	0.0	532.0	-0.78	-0.053	
6.0	0.0	0.0	0.0	0.0	534.0	-0.783	-0.064	
7.0	0.0	0.0	0.0	0.0	537.0	-0.783	-0.021	
8.0	0.0	0.0	0.0	0.0	539.0	-0.78	0.0	
9.0	0.0	0.0	0.0	0.0	539.0	-0.78	-0.053	
10.0	0.0	0.0	0.0	0.0	540.0	-0.783	-0.056	
11.0	0.0	0.0	0.0	0.0	540.0	-0.783	-0.07	
12.0	0.0	0.0	0.0	0.0	539.0	-0.777	-0.091	
13.0	0.0	0.0	0.0	0.0	536.0	-0.773	-0.076	
14.0	0.0	0.0	0.0	0.0	536.0	-0.773	-0.097	
15.0	0.0	0.0	0.0	0.0	532.0	-0.767	-0.097	
0.0	0.0	0.0	0.0	0.0	529.0	-0.757	-0.094	
1.0	0.0	0.0	0.0	0.0	527.0	-0.744	-0.105	
2.0	0.0	0.0	0.0	0.0	526.0	-0.725	0.018	
3.0	0.0	0.0	0.0	0.0	524.0	-0.706	0.009	
4.0	0.0	0.0	0.0	0.0	523.0	-0.683	0.082	
5.0	0.0	0.0	0.0	0.0	523.0	-0.667	0.056	
6.0	0.0	0.0	0.0	0.0	523.0	-0.645	0.0	
7.0	0.0	0.0	0.0	0.0	525.0	-0.628	-0.135	
8.0	0.0	0.0	0.0	0.0	525.0	-0.616	-0.243	
9.0	0.0	0.0	0.0	0.0	524.0	-0.599	-0.284	
10.0	0.0	0.0	0.0	0.0	521.0	-0.587	-0.278	
11.0	0.0	0.0	0.0	0.0	522.0	-0.57	-0.275	
12.0	0.0	0.0	0.0	0.0	521.0	-0.558	-0.381	
13.0	0.0	0.0	0.0	0.0	520.0	-0.541	-0.135	
14.0	0.0	0.0	0.0	0.0	518.0	-0.525	0.589	
15.0	0.0	0.0	0.0	0.0	515.0	-0.506	1.383	
0.0	0.0	0.0	0.0	0.0	514.0	-0.49	1.251	
1.0	0.0	0.0	0.0	0.0	513.0	-0.477	0.182	
2.0	0.0	0.0	0.0	0.0	512.0	-0.461	-0.425	
3.0	0.0	0.0	0.0	0.0	512.0	-0.445	-0.653	
4.0	0.0	0.0	0.0	0.0	512.0	-0.425	-0.589	
5.0	0.0	0.0	0.0	0.0	512.0	-0.406	-0.489	
6.0	0.0	0.0	0.0	0.0	511.0	-0.393	-0.437	
7.0	0.0	0.0	0.0	0.0	511.0	-0.39	-0.334	
8.0	0.0	0.0	0.0	0.0	511.0	-0.383	-0.278	
9.0	0.0	0.0	0.0	0.0	512.0	-0.383	-0.202	
10.0	0.0	0.0	0.0	0.0	512.0	-0.383	-0.135	
11.0	0.0	0.0	0.0	0.0	512.0	-0.383	-0.114	
12.0	0.0	0.0	0.0	0.0	512.0	-0.39	-0.041	
13.0	0.0	0.0	0.0	0.0	512.0	-0.4	-0.021	
14.0	0.0	0.0	0.0	0.0	513.0	-0.413	0.026	
15.0	0.0	0.0	0.0	0.0	513.0	-0.425	0.018	
0.0	0.0	0.0	0.0	0.0	511.0	-0.442	0.097	
1.0	0.0	0.0	0.0	0.0	507.0	-0.464	0.126	
2.0	0.0	0.0	0.0	0.0	506.0	-0.483	0.179	
3.0	0.0	0.0	0.0	0.0	506.0	-0.503	0.229	
4.0	0.0	0.0	0.0	0.0	506.0	-0.519	0.226	
5.0	0.0	0.0	0.0	0.0	508.0	-0.529	0.205	
6.0	0.0	0.0	0.0	0.0	510.0	-0.541	0.185	
7.0	0.0	0.0	0.0	0.0	512.0	-0.548	0.097	
8.0	0.0	0.0	0.0	0.0	515.0	-0.558	-0.023	
9.0	0.0	0.0	0.0	0.0	515.0	-0.57	-0.126	
10.0	0.0	0.0	0.0	0.0	517.0	-0.583	-0.205	
11.0	0.0	0.0	0.0	0.0	518.0	-0.596	-0.261	
12.0	0.0	0.0	0.0	0.0	520.0	-0.609	-0.272	
13.0	0.0	0.0	0.0	0.0	520.0	-0.619	-0.287	
14.0	0.0	0.0	0.0	0.0	521.0	-0.635	-0.223	
15.0	0.0	0.0	0.0	0.0	523.0	-0.645	-0.214	
0.0	0.0	0.0	0.0	0.0	524.0	-0.654	-0.237	
1.0	0.0	0.0	0.0	0.0	526.0	-0.664	-0.243	
2.0	0.0	0.0	0.0	0.0	526.0	-0.67	-0.202	
3.0	0.0	0.0	0.0	0.0	527.0	-0.677	-0.196	
4.0	0.0	0.0	0.0	0.0	527.0	-0.677	-0.179	
5.0	0.0	0.0	0.0	0.0	528.0	-0.68	-0.126	
6.0	0.0	0.0	0.0	0.0	529.0	-0.677	-0.105	
7.0	0.0	0.0	0.0	0.0	529.0	-0.68	-0.088	
8.0	0.0	0.0	0.0	0.0	531.0	-0.677	-0.056	
9.0	0.0	0.0	0.0	0.0	531.0	-0.674	-0.029	
10.0	0.0	0.0	0.0	0.0	529.0	-0.674	-0.032	
11.0	0.0	0.0	0.0	0.0	527.0	-0.674	-0.044	
12.0	0.0	0.0	0.0	0.0	524.0	-0.67	-0.047	
13.0	0.0	0.0	0.0	0.0	524.0	-0.664	-0.076	
14.0	0.0	0.0	0.0	0.0	522.0	-0.657	-0.023	
15.0	0.0	0.0	0.0	0.0	518.0	-0.648	0.021	
0.0	0.0	0.0	0.0	0.0	518.0	-0.641	-0.012	
1.0	0.0	0.0	0.0	0.0	517.0	-0.635	-0.006	
2.0	0.0	0.0	0.0	0.0	518.0	-0.622	0.026	
3.0	0.0	0.0	0.0	0.0	521.0	-0.619	-0.003	
4.0	0.0	0.0	0.0	0.0	524.0	-0.612	0.059	
5.0	0.0	0.0	0.0	0.0	525.0	-0.612	0.149	
6.0	0.0	0.0	0.0	0.0	524.0	-0.609	0.103	
7.0	0.0	0.0	0.0	0.0	523.0	-0.606	0.018	
8.0	0.0	0.0	0.0	0.0	521.0	-0.596	0.003	
9.0	0.0	0.0	0.0	0.0	521.0	-0.59	-0.038	
10.0	0.0	0.0	0.0	0.0	524.0	-0.58	-0.064	
11.0	0.0	0.0	0.0	0.0	523.0	-0.567	-0.021	
12.0	0.0	0.0	0.0	0.0	524.0	-0.554	-0.044	
13.0	0.0	0.0	0.0	0.0	523.0	-0.541	-0.091	
14.0	0.0	0.0	0.0	0.0	521.0	-0.522	0.29	
15.0	0.0	0.0	0.0	0.0	523.0	-0.496	1.189	
0.0	0.0	0.0	0.0	0.0	522.0	-0.464	1.494	
1.0	0.0	0.0	0.0	0.0	520.0	-0.432	0.932	
2.0	0.0	0.0	0.0	0.0	516.0	-0.403	0.091	
3.0	0.0	0.0	0.0	0.0	515.0	-0.377	-0.375	
4.0	0.0	0.0	0.0	0.0	514.0	-0.361	-0.475	
5.0	0.0	0.0	0.0	0.0	512.0	-0.345	-0.299	
6.0	0.0	0.0	0.0	0.0	512.0	-0.335	-0.501	
7.0	0.0	0.0	0.0	0.0	511.0	-0.325	-0.375	
8.0	0.0	0.0	0.0	0.0	510.0	-0.306	-0.308	
9.0	0.0	0.0	0.0	0.0	509.0	-0.29	-0.255	
10.0	0.0	0.0	0.0	0.0	507.0	-0.271	-0.258	
11.0	0.0	0.0	0.0	0.0	507.0	-0.258	-0.167	
12.0	0.0	0.0	0.0	0.0	505.0	-0.264	-0.164	
13.0	0.0	0.0	0.0	0.0	504.0	-0.287	-0.123	
14.0	0.0	0.0	0.0	0.0	503.0	-0.325	-0.103	
15.0	0.0	0.0	0.0	0.0	502.0	-0.371	-0.044	
0.0	0.0	0.0	0.0	0.0	500.0	-0.416	-0.009	
1.0	0.0	0.0	0.0	0.0	500.0	-0.458	0.067	
2.0	0.0	0.0	0.0	0.0	499.0	-0.49	0.123	
3.0	0.0	0.0	0.0	0.0	497.0	-0.512	0.164	
4.0	0.0	0.0	0.0	0.0	497.0	-0.522	0.138	
5.0	0.0	0.0	0.0	0.0	497.0	-0.522	0.097	
6.0	0.0	0.0	0.0	0.0	499.0	-0.522	0.141	
7.0	0.0	0.0	0.0	0.0	500.0	-0.516	0.05	
8.0	0.0	0.0	0.0	0.0	502.0	-0.509	-0.018	
9.0	0.0	0.0	0.0	0.0	501.0	-0.503	-0.012	
10.0	0.0	0.0	0.0	0.0	501.0	-0.493	-0.076	
11.0	0.0	0.0	0.0	0.0	504.0	-0.48	-0.111	
12.0	0.0	0.0	0.0	0.0	506.0	-0.471	-0.126	
13.0	0.0	0.0	0.0	0.0	509.0	-0.454	-0.135	
14.0	0.0	0.0	0.0	0.0	511.0	-0.442	-0.123	
15.0	0.0	0.0	0.0	0.0	511.0	-0.429	-0.179	
0.0	0.0	0.0	0.0	0.0	515.0	-0.416	-0.161	
1.0	0.0	0.0	0.0	0.0	519.0	-0.403	-0.161	
2.0	0.0	0.0	0.0	0.0	521.0	-0.39	-0.129	
3.0	0.0	0.0	0.0	0.0	523.0	-0.371	-0.085	
4.0	0.0	0.0	0.0	0.0	525.0	-0.351	-0.05	
5.0	0.0	0.0	0.0	0.0	526.0	-0.329	0.012	
6.0	0.0	0.0	0.0	0.0	528.0	-0.303	0.003	
7.0	0.0	0.0	0.0	0.0	530.0	-0.271	0.082	
8.0	0.0	0.0	0.0	0.0	531.0	-0.242	0.103	
9.0	0.0	0.0	0.0	0.0	531.0	-0.213	0.141	
10.0	0.0	0.0	0.0	0.0	529.0	-0.187	0.079	
11.0	0.0	0.0	0.0	0.0	527.0	-0.161	0.044	
12.0	0.0	0.0	0.0	0.0	527.0	-0.135	0.062	
13.0	0.0	0.0	0.0	0.0	527.0	-0.113	0.073	
14.0	0.0	0.0	0.0	0.0	527.0	-0.087	0.088	
15.0	0.0	0.0	0.0	0.0	528.0	-0.061	0.062	
0.0	0.0	0.0	0.0	0.0	529.0	-0.032	0.085	
1.0	0.0	0.0	0.0	0.0	529.0	-0.003	0.073	
2.0	0.0	0.0	0.0	0.0	528.0	0.023	0.07	
3.0	0.0	0.0	0.0	0.0	527.0	0.045	0.126	
4.0	0.0	0.0	0.0	0.0	526.0	0.064	0.176	
5.0	0.0	0.0	0.0	0.0	524.0	0.077	0.173	
6.0	0.0	0.0	0.0	0.0	521.0	0.09	0.12	
7.0	0.0	0.0	0.0	0.0	519.0	0.1	-0.012	
8.0	0.0	0.0	0.0	0.0	519.0	0.106	-0.023	
9.0	0.0	0.0	0.0	0.0	518.0	0.113	-0.067	
10.0	0.0	0.0	0.0	0.0	516.0	0.11	-0.085	
11.0	0.0	0.0	0.0	0.0	518.0	0.106	-0.132	
12.0	0.0	0.0	0.0	0.0	519.0	0.097	-0.161	
13.0	0.0	0.0	0.0	0.0	521.0	0.087	0.179	
14.0	0.0	0.0	0.0	0.0	523.0	0.077	1.037	
15.0	0.0	0.0	0.0	0.0	522.0	0.068	1.397	
0.0	0.0	0.0	0.0	0.0	523.0	0.055	0.671	
1.0	0.0	0.0	0.0	0.0	524.0	0.039	0.006	
2.0	0.0	0.0	0.0	0.0	523.0	0.013	-0.413	
3.0	0.0	0.0	0.0	0.0	521.0	-0.003	-0.533	
4.0	0.0	0.0	0.0	0.0	520.0	-0.023	-0.442	
5.0	0.0	0.0	0.0	0.0	517.0	-0.035	-0.46	
6.0	0.0	0.0	0.0	0.0	511.0	-0.035	-0.328	
7.0	0.0	0.0	0.0	0.0	508.0	-0.035	-0.319	
8.0	0.0	0.0	0.0	0.0	508.0	-0.032	-0.231	
9.0	0.0	0.0	0.0	0.0	509.0	-0.029	-0.237	
10.0	0.0	0.0	0.0	0.0	507.0	-0.029	-0.193	
11.0	0.0	0.0	0.0	0.0	507.0	-0.032	-0.155	
12.0	0.0	0.0	0.0	0.0	507.0	-0.052	-0.188	
13.0	0.0	0.0	0.0	0.0	505.0	-0.074	-0.111	
14.0	0.0	0.0	0.0	0.0	503.0	-0.097	-0.032	
15.0	0.0	0.0	0.0	0.0	502.0	-0.119	0.006	
0.0	0.0	0.0	0.0	0.0	503.0	-0.139	0.041	
1.0	0.0	0.0	0.0	0.0	504.0	-0.155	0.085	
2.0	0.0	0.0	0.0	0.0	503.0	-0.168	0.144	
3.0	0.0	0.0	0.0	0.0	503.0	-0.174	0.158	
4.0	0.0	0.0	0.0	0.0	504.0	-0.177	0.176	
5.0	0.0	0.0	0.0	0.0	504.0	-0.177	0.182	
6.0	0.0	0.0	0.0	0.0	503.0	-0.184	0.146	
7.0	0.0	0.0	0.0	0.0	502.0	-0.187	0.088	
8.0	0.0	0.0	0.0	0.0	503.0	-0.19	-0.026	
9.0	0.0	0.0	0.0	0.0	505.0	-0.193	-0.114	
10.0	0.0	0.0	0.0	0.0	505.0	-0.193	-0.167	
11.0	0.0	0.0	0.0	0.0	505.0	-0.19	-0.161	
12.0	0.0	0.0	0.0	0.0	506.0	-0.184	-0.205	
13.0	0.0	0.0	0.0	0.0	508.0	-0.171	-0.267	
14.0	0.0	0.0	0.0	0.0	510.0	-0.164	-0.167	
15.0	0.0	0.0	0.0	0.0	513.0	-0.155	-0.123	
0.0	0.0	0.0	0.0	0.0	517.0	-0.142	-0.091	
1.0	0.0	0.0	0.0	0.0	516.0	-0.126	-0.1	
2.0	0.0	0.0	0.0	0.0	518.0	-0.103	-0.026	
3.0	0.0	0.0	0.0	0.0	517.0	-0.084	0.032	
4.0	0.0	0.0	0.0	0.0	518.0	-0.058	-0.012	
5.0	0.0	0.0	0.0	0.0	518.0	-0.029	0.018	
6.0	0.0	0.0	0.0	0.0	516.0	-0.003	0.012	
7.0	0.0	0.0	0.0	0.0	514.0	0.026	-0.012	
8.0	0.0	0.0	0.0	0.0	514.0	0.055	-0.082	
9.0	0.0	0.0	0.0	0.0	514.0	0.084	-0.07	
10.0	0.0	0.0	0.0	0.0	513.0	0.113	-0.07	
11.0	0.0	0.0	0.0	0.0	512.0	0.142	-0.085	
12.0	0.0	0.0	0.0	0.0	512.0	0.171	-0.12	
13.0	0.0	0.0	0.0	0.0	511.0	0.2	-0.085	
14.0	0.0	0.0	0.0	0.0	509.0	0.229	-0.085	
15.0	0.0	0.0	0.0	0.0	509.0	0.261	-0.023	
0.0	0.0	0.0	0.0	0.0	509.0	0.293	0.0	
1.0	0.0	0.0	0.0	0.0	508.0	0.325	0.056	
2.0	0.0	0.0	0.0	0.0	506.0	0.358	0.132	
3.0	0.0	0.0	0.0	0.0	504.0	0.39	0.173	
4.0	0.0	0.0	0.0	0.0	502.0	0.422	0.088	
5.0	0.0	0.0	0.0	0.0	502.0	0.458	-0.003	
6.0	0.0	0.0	0.0	0.0	501.0	0.49	-0.07	
7.0	0.0	0.0	0.0	0.0	501.0	0.516	-0.103	
8.0	0.0	0.0	0.0	0.0	501.0	0.545	-0.111	
9.0	0.0	0.0	0.0	0.0	500.0	0.564	-0.12	
10.0	0.0	0.0	0.0	0.0	499.0	0.587	-0.193	
11.0	0.0	0.0	0.0	0.0	498.0	0.606	0.032	
12.0	0.0	0.0	0.0	0.0	498.0	0.625	0.727	
13.0	0.0	0.0	0.0	0.0	497.0	0.651	1.438	
14.0	0.0	0.0	0.0	0.0	496.0	0.674	1.099	
15.0	0.0	0.0	0.0	0.0	499.0	0.699	0.352	
0.0	0.0	0.0	0.0	0.0	500.0	0.722	-0.199	
1.0	0.0	0.0	0.0	0.0	501.0	0.744	-0.431	
2.0	0.0	0.0	0.0	0.0	502.0	0.77	-0.393	
3.0	0.0	0.0	0.0	0.0	503.0	0.793	-0.346	
4.0	0.0	0.0	0.0	0.0	507.0	0.819	-0.313	
5.0	0.0	0.0	0.0	0.0	508.0	0.844	-0.27	
6.0	0.0	0.0	0.0	0.0	510.0	0.867	-0.211	
7.0	0.0	0.0	0.0	0.0	510.0	0.896	-0.152	
8.0	0.0	0.0	0.0	0.0	510.0	0.922	-0.161	
9.0	0.0	0.0	0.0	0.0	509.0	0.944	-0.152	
10.0	0.0	0.0	0.0	0.0	505.0	0.96	-0.111	
11.0	0.0	0.0	0.0	0.0	505.0	0.967	-0.103	
12.0	0.0	0.0	0.0	0.0	504.0	0.967	0.0	
13.0	0.0	0.0	0.0	0.0	502.0	0.967	0.032	
14.0	0.0	0.0	0.0	0.0	500.0	0.967	0.07	
15.0	0.0	0.0	0.0	0.0	500.0	0.97	0.076	
0.0	0.0	0.0	0.0	0.0	500.0	0.973	0.173	
1.0	0.0	0.0	0.0	0.0	499.0	0.976	0.185	
2.0	0.0	0.0	0.0	0.0	498.0	0.983	0.173	
3.0	0.0	0.0	0.0	0.0	497.0	0.993	0.17	
4.0	0.0	0.0	0.0	0.0	497.0	1.002	0.158	
5.0	0.0	0.0	0.0	0.0	496.0	1.005	0.023	
6.0	0.0	0.0	0.0	0.0	497.0	1.012	0.012	
7.0	0.0	0.0	0.0	0.0	500.0	1.015	-0.053	
8.0	0.0	0.0	0.0	0.0	504.0	1.018	-0.176	
9.0	0.0	0.0	0.0	0.0	505.0	1.025	-0.161	
10.0	0.0	0.0	0.0	0.0	508.0	1.025	-0.126	
11.0	0.0	0.0	0.0	0.0	509.0	1.025	-0.152	
12.0	0.0	0.0	0.0	0.0	510.0	1.022	-0.129	
13.0	0.0	0.0	0.0	0.0	511.0	1.015	-0.129	
14.0	0.0	0.0	0.0	0.0	512.0	1.005	-0.114	
15.0	0.0	0.0	0.0	0.0	513.0	0.989	-0.067	
0.0	0.0	0.0	0.0	0.0	514.0	0.976	-0.047	
1.0	0.0	0.0	0.0	0.0	515.0	0.967	-0.062	
2.0	0.0	0.0	0.0	0.0	514.0	0.964	-0.038	
3.0	0.0	0.0	0.0	0.0	514.0	0.967	-0.035	
4.0	0.0	0.0	0.0	0.0	514.0	0.973	-0.009	
5.0	0.0	0.0	0.0	0.0	515.0	0.98	-0.064	
6.0	0.0	0.0	0.0	0.0	516.0	0.993	-0.073	
7.0	0.0	0.0	0.0	0.0	515.0	0.999	-0.067	
8.0	0.0	0.0	0.0	0.0	514.0	1.005	-0.076	
9.0	0.0	0.0	0.0	0.0	512.0	1.009	-0.108	
10.0	0.0	0.0	0.0	0.0	511.0	1.012	-0.114	
11.0	0.0	0.0	0.0	0.0	509.0	1.012	-0.026	
12.0	0.0	0.0	0.0	0.0	509.0	1.012	-0.023	
13.0	0.0	0.0	0.0	0.0	508.0	1.009	-0.021	
14.0	0.0	0.0	0.0	0.0	509.0	1.005	0.018	
15.0	0.0	0.0	0.0	0.0	508.0	0.996	0.044	
0.0	0.0	0.0	0.0	0.0	507.0	0.986	0.082	
1.0	0.0	0.0	0.0	0.0	505.0	0.973	0.135	
2.0	0.0	0.0	0.0	0.0	504.0	0.951	0.149	
3.0	0.0	0.0	0.0	0.0	502.0	0.922	0.129	
4.0	0.0	0.0	0.0	0.0	500.0	0.886	0.17	
5.0	0.0	0.0	0.0	0.0	499.0	0.841	0.117	
6.0	0.0	0.0	0.0	0.0	496.0	0.793	0.091	
7.0	0.0	0.0	0.0	0.0	495.0	0.738	-0.064	
8.0	0.0	0.0	0.0	0.0	494.0	0.683	-0.059	
9.0	0.0	0.0	0.0	0.0	493.0	0.638	-0.015	
10.0	0.0	0.0	0.0	0.0	495.0	0.593	-0.097	
11.0	0.0	0.0	0.0	0.0	496.0	0.561	-0.126	
12.0	0.0	0.0	0.0	0.0	496.0	0.532	0.149	
13.0	0.0	0.0	0.0	0.0	501.0	0.503	1.043	
14.0	0.0	0.0	0.0	0.0	503.0	0.474	1.494	
15.0	0.0	0.0	0.0	0.0	502.0	0.451	1.154	
0.0	0.0	0.0	0.0	0.0	499.0	0.422	0.085	
1.0	0.0	0.0	0.0	0.0	497.0	0.396	-0.48	
2.0	0.0	0.0	0.0	0.0	496.0	0.371	-0.475	
3.0	0.0	0.0	0.0	0.0	494.0	0.351	-0.466	
4.0	0.0	0.0	0.0	0.0	493.0	0.332	-0.428	
5.0	0.0	0.0	0.0	0.0	493.0	0.303	-0.434	
6.0	0.0	0.0	0.0	0.0	491.0	0.277	-0.393	
7.0	0.0	0.0	0.0	0.0	492.0	0.245	-0.331	
8.0	0.0	0.0	0.0	0.0	494.0	0.219	-0.179	
9.0	0.0	0.0	0.0	0.0	494.0	0.193	-0.138	
10.0	0.0	0.0	0.0	0.0	493.0	0.164	-0.073	
11.0	0.0	0.0	0.0	0.0	492.0	0.132	-0.261	
12.0	0.0	0.0	0.0	0.0	490.0	0.093	-0.135	
13.0	0.0	0.0	0.0	0.0	490.0	0.052	-0.056	
14.0	0.0	0.0	0.0	0.0	489.0	0.006	-0.076	
15.0	0.0	0.0	0.0	0.0	490.0	-0.042	0.041	
0.0	0.0	0.0	0.0	0.0	490.0	-0.09	-0.038	
1.0	0.0	0.0	0.0	0.0	492.0	-0.135	-0.018	
2.0	0.0	0.0	0.0	0.0	492.0	-0.18	0.067	
3.0	0.0	0.0	0.0	0.0	494.0	-0.219	0.029	
4.0	0.0	0.0	0.0	0.0	495.0	-0.255	0.082	
5.0	0.0	0.0	0.0	0.0	494.0	-0.284	0.044	
6.0	0.0	0.0	0.0	0.0	496.0	-0.309	-0.009	
7.0	0.0	0.0	0.0	0.0	497.0	-0.338	-0.082	
8.0	0.0	0.0	0.0	0.0	499.0	-0.364	-0.217	
9.0	0.0	0.0	0.0	0.0	500.0	-0.39	-0.246	
10.0	0.0	0.0	0.0	0.0	504.0	-0.416	-0.217	
11.0	0.0	0.0	0.0	0.0	508.0	-0.438	-0.132	
12.0	0.0	0.0	0.0	0.0	510.0	-0.461	-0.073	
13.0	0.0	0.0	0.0	0.0	509.0	-0.48	-0.164	
14.0	0.0	0.0	0.0	0.0	510.0	-0.5	-0.123	
15.0	0.0	0.0	0.0	0.0	511.0	-0.516	-0.105	
0.0	0.0	0.0	0.0	0.0	513.0	-0.522	-0.006	
1.0	0.0	0.0	0.0	0.0	514.0	-0.529	-0.047	
2.0	0.0	0.0	0.0	0.0	513.0	-0.529	0.018	
3.0	0.0	0.0	0.0	0.0	513.0	-0.529	-0.023	
4.0	0.0	0.0	0.0	0.0	513.0	-0.519	0.091	
5.0	0.0	0.0	0.0	0.0	513.0	-0.512	0.021	
6.0	0.0	0.0	0.0	0.0	513.0	-0.503	0.067	
7.0	0.0	0.0	0.0	0.0	512.0	-0.493	0.053	
8.0	0.0	0.0	0.0	0.0	510.0	-0.49	0.044	
9.0	0.0	0.0	0.0	0.0	510.0	-0.483	0.047	
10.0	0.0	0.0	0.0	0.0	508.0	-0.48	0.018	
11.0	0.0	0.0	0.0	0.0	509.0	-0.483	0.012	
12.0	0.0	0.0	0.0	0.0	507.0	-0.483	-0.064	
13.0	0.0	0.0	0.0	0.0	507.0	-0.483	-0.012	
14.0	0.0	0.0	0.0	0.0	505.0	-0.483	0.0	
15.0	0.0	0.0	0.0	0.0	506.0	-0.483	0.047	
0.0	0.0	0.0	0.0	0.0	507.0	-0.48	-0.044	
1.0	0.0	0.0	0.0	0.0	507.0	-0.477	0.009	
2.0	0.0	0.0	0.0	0.0	505.0	-0.471	0.0	
3.0	0.0	0.0	0.0	0.0	503.0	-0.464	0.018	
4.0	0.0	0.0	0.0	0.0	504.0	-0.461	-0.012	
5.0	0.0	0.0	0.0	0.0	502.0	-0.454	0.044	
6.0	0.0	0.0	0.0	0.0	501.0	-0.451	0.117	
7.0	0.0	0.0	0.0	0.0	503.0	-0.451	0.088	
8.0	0.0	0.0	0.0	0.0	503.0	-0.448	0.059	
9.0	0.0	0.0	0.0	0.0	502.0	-0.451	-0.023	
10.0	0.0	0.0	0.0	0.0	502.0	-0.454	-0.05	
11.0	0.0	0.0	0.0	0.0	501.0	-0.464	-0.141	
12.0	0.0	0.0	0.0	0.0	502.0	-0.471	-0.144	
13.0	0.0	0.0	0.0	0.0	503.0	-0.487	-0.149	
14.0	0.0	0.0	0.0	0.0	501.0	-0.503	-0.149	
15.0	0.0	0.0	0.0	0.0	502.0	-0.522	0.334	
0.0	0.0	0.0	0.0	0.0	503.0	-0.545	1.254	
1.0	0.0	0.0	0.0	0.0	501.0	-0.57	1.494	
2.0	0.0	0.0	0.0	0.0	499.0	-0.596	0.806	
3.0	0.0	0.0	0.0	0.0	499.0	-0.632	-0.129	
4.0	0.0	0.0	0.0	0.0	500.0	-0.664	-0.507	
5.0	0.0	0.0	0.0	0.0	500.0	-0.696	-0.574	
6.0	0.0	0.0	0.0	0.0	500.0	-0.722	-0.542	
7.0	0.0	0.0	0.0	0.0	502.0	-0.748	-0.393	
8.0	0.0	0.0	0.0	0.0	503.0	-0.77	-0.401	
9.0	0.0	0.0	0.0	0.0	503.0	-0.793	-0.328	
10.0	0.0	0.0	0.0	0.0	501.0	-0.806	-0.416	
11.0	0.0	0.0	0.0	0.0	501.0	-0.812	-0.319	
12.0	0.0	0.0	0.0	0.0	502.0	-0.815	-0.226	
13.0	0.0	0.0	0.0	0.0	504.0	-0.822	-0.205	
14.0	0.0	0.0	0.0	0.0	503.0	-0.835	-0.173	
15.0	0.0	0.0	0.0	0.0	504.0	-0.854	-0.029	
0.0	0.0	0.0	0.0	0.0	504.0	-0.873	-0.082	
1.0	0.0	0.0	0.0	0.0	504.0	-0.889	-0.026	
2.0	0.0	0.0	0.0	0.0	504.0	-0.909	0.053	
3.0	0.0	0.0	0.0	0.0	502.0	-0.925	-0.015	
4.0	0.0	0.0	0.0	0.0	503.0	-0.938	0.094	
5.0	0.0	0.0	0.0	0.0	502.0	-0.951	0.114	
6.0	0.0	0.0	0.0	0.0	501.0	-0.954	0.146	
7.0	0.0	0.0	0.0	0.0	499.0	-0.957	0.164	
8.0	0.0	0.0	0.0	0.0	496.0	-0.964	0.117	
9.0	0.0	0.0	0.0	0.0	494.0	-0.967	0.088	
10.0	0.0	0.0	0.0	0.0	492.0	-0.973	0.056	
11.0	0.0	0.0	0.0	0.0	492.0	-0.98	0.023	
12.0	0.0	0.0	0.0	0.0	492.0	-0.989	0.006	
13.0	0.0	0.0	0.0	0.0	495.0	-0.996	-0.012	
14.0	0.0	0.0	0.0	0.0	497.0	-1.005	0.0	
15.0	0.0	0.0	0.0	0.0	501.0	-1.005	-0.023	
0.0	0.0	0.0	0.0	0.0	504.0	-1.005	-0.006	
1.0	0.0	0.0	0.0	0.0	508.0	-1.002	-0.067	
2.0	0.0	0.0	0.0	0.0	510.0	-0.993	-0.12	
3.0	0.0	0.0	0.0	0.0	511.0	-0.983	-0.006	
4.0	0.0	0.0	0.0	0.0	512.0	-0.97	-0.085	
5.0	0.0	0.0	0.0	0.0	514.0	-0.954	-0.067	
6.0	0.0	0.0	0.0	0.0	515.0	-0.935	-0.079	
7.0	0.0	0.0	0.0	0.0	515.0	-0.915	-0.111	
8.0	0.0	0.0	0.0	0.0	513.0	-0.899	-0.082	
9.0	0.0	0.0	0.0	0.0	510.0	-0.883	-0.067	
10.0	0.0	0.0	0.0	0.0	508.0	-0.873	-0.009	
11.0	0.0	0.0	0.0	0.0	509.0	-0.864	-0.006	
12.0	0.0	0.0	0.0	0.0	510.0	-0.854	-0.062	
13.0	0.0	0.0	0.0	0.0	511.0	-0.844	0.021	
14.0	0.0	0.0	0.0	0.0	510.0	-0.831	-0.064	
15.0	0.0	0.0	0.0	0.0	510.0	-0.822	-0.015	
0.0	0.0	0.0	0.0	0.0	510.0	-0.809	0.015	
1.0	0.0	0.0	0.0	0.0	511.0	-0.796	0.059	
2.0	0.0	0.0	0.0	0.0	510.0	-0.78	0.117	
3.0	0.0	0.0	0.0	0.0	507.0	-0.764	0.091	
4.0	0.0	0.0	0.0	0.0	507.0	-0.744	0.094	
5.0	0.0	0.0	0.0	0.0	507.0	-0.725	0.111	
6.0	0.0	0.0	0.0	0.0	505.0	-0.706	0.076	
7.0	0.0	0.0	0.0	0.0	507.0	-0.683	0.117	
8.0	0.0	0.0	0.0	0.0	503.0	-0.667	0.105	
9.0	0.0	0.0	0.0	0.0	500.0	-0.645	0.22	
10.0	0.0	0.0	0.0	0.0	498.0	-0.632	0.114	
11.0	0.0	0.0	0.0	0.0	498.0	-0.616	-0.029	
12.0	0.0	0.0	0.0	0.0	498.0	-0.603	-0.053	
13.0	0.0	0.0	0.0	0.0	498.0	-0.59	-0.053	
14.0	0.0	0.0	0.0	0.0	500.0	-0.577	-0.073	
15.0	0.0	0.0	0.0	0.0	502.0	-0.57	-0.018	
0.0	0.0	0.0	0.0	0.0	502.0	-0.564	-0.182	
1.0	0.0	0.0	0.0	0.0	501.0	-0.561	0.103	
2.0	0.0	0.0	0.0	0.0	500.0	-0.558	0.826	
3.0	0.0	0.0	0.0	0.0	499.0	-0.558	1.403	
4.0	0.0	0.0	0.0	0.0	497.0	-0.558	1.04	
5.0	0.0	0.0	0.0	0.0	495.0	-0.564	0.299	
6.0	0.0	0.0	0.0	0.0	494.0	-0.57	-0.308	
7.0	0.0	0.0	0.0	0.0	494.0	-0.583	-0.571	
8.0	0.0	0.0	0.0	0.0	494.0	-0.596	-0.404	
9.0	0.0	0.0	0.0	0.0	495.0	-0.599	-0.404	
10.0	0.0	0.0	0.0	0.0	494.0	-0.599	-0.398	
11.0	0.0	0.0	0.0	0.0	496.0	-0.59	-0.343	
12.0	0.0	0.0	0.0	0.0	497.0	-0.58	-0.267	
13.0	0.0	0.0	0.0	0.0	496.0	-0.567	-0.243	
14.0	0.0	0.0	0.0	0.0	495.0	-0.551	-0.185	
15.0	0.0	0.0	0.0	0.0	494.0	-0.548	-0.155	
0.0	0.0	0.0	0.0	0.0	493.0	-0.554	-0.149	
1.0	0.0	0.0	0.0	0.0	495.0	-0.574	-0.1	
2.0	0.0	0.0	0.0	0.0	495.0	-0.599	0.026	
3.0	0.0	0.0	0.0	0.0	495.0	-0.625	-0.056	
4.0	0.0	0.0	0.0	0.0	494.0	-0.654	0.018	
5.0	0.0	0.0	0.0	0.0	494.0	-0.674	0.035	
6.0	0.0	0.0	0.0	0.0	493.0	-0.686	0.029	
7.0	0.0	0.0	0.0	0.0	492.0	-0.696	0.091	
8.0	0.0	0.0	0.0	0.0	493.0	-0.696	0.22	
9.0	0.0	0.0	0.0	0.0	493.0	-0.693	-0.003	
10.0	0.0	0.0	0.0	0.0	492.0	-0.683	0.079	
11.0	0.0	0.0	0.0	0.0	494.0	-0.674	0.056	
12.0	0.0	0.0	0.0	0.0	496.0	-0.664	-0.018	
13.0	0.0	0.0	0.0	0.0	497.0	-0.657	-0.091	
14.0	0.0	0.0	0.0	0.0	499.0	-0.651	-0.144	
15.0	0.0	0.0	0.0	0.0	502.0	-0.641	-0.12	
0.0	0.0	0.0	0.0	0.0	504.0	-0.635	-0.123	
1.0	0.0	0.0	0.0	0.0	504.0	-0.625	-0.132	
2.0	0.0	0.0	0.0	0.0	507.0	-0.616	-0.123	
3.0	0.0	0.0	0.0	0.0	511.0	-0.606	-0.149	
4.0	0.0	0.0	0.0	0.0	512.0	-0.596	-0.135	
5.0	0.0	0.0	0.0	0.0	512.0	-0.577	-0.097	
6.0	0.0	0.0	0.0	0.0	513.0	-0.561	-0.023	
7.0	0.0	0.0	0.0	0.0	512.0	-0.541	-0.015	
8.0	0.0	0.0	0.0	0.0	512.0	-0.522	0.047	
9.0	0.0	0.0	0.0	0.0	511.0	-0.503	-0.05	
10.0	0.0	0.0	0.0	0.0	510.0	-0.483	-0.05	
11.0	0.0	0.0	0.0	0.0	510.0	-0.467	-0.012	
12.0	0.0	0.0	0.0	0.0	510.0	-0.448	0.012	
13.0	0.0	0.0	0.0	0.0	508.0	-0.432	-0.062	
14.0	0.0	0.0	0.0	0.0	508.0	-0.416	0.003	
15.0	0.0	0.0	0.0	0.0	508.0	-0.403	-0.044	
0.0	0.0	0.0	0.0	0.0	507.0	-0.39	0.003	
1.0	0.0	0.0	0.0	0.0	507.0	-0.38	-0.044	
2.0	0.0	0.0	0.0	0.0	506.0	-0.371	-0.023	
3.0	0.0	0.0	0.0	0.0	506.0	-0.361	-0.032	
4.0	0.0	0.0	0.0	0.0	505.0	-0.354	0.023	
5.0	0.0	0.0	0.0	0.0	504.0	-0.345	-0.003	
6.0	0.0	0.0	0.0	0.0	503.0	-0.338	0.006	
7.0	0.0	0.0	0.0	0.0	503.0	-0.325	0.003	
8.0	0.0	0.0	0.0	0.0	502.0	-0.313	0.035	
9.0	0.0	0.0	0.0	0.0	503.0	-0.296	0.111	
10.0	0.0	0.0	0.0	0.0	505.0	-0.28	0.149	
11.0	0.0	0.0	0.0	0.0	505.0	-0.264	0.094	
12.0	0.0	0.0	0.0	0.0	507.0	-0.245	-0.009	
13.0	0.0	0.0	0.0	0.0	510.0	-0.226	-0.023	
14.0	0.0	0.0	0.0	0.0	510.0	-0.206	-0.056	
15.0	0.0	0.0	0.0	0.0	513.0	-0.19	-0.05	
0.0	0.0	0.0	0.0	0.0	515.0	-0.174	-0.006	
1.0	0.0	0.0	0.0	0.0	516.0	-0.164	-0.088	
2.0	0.0	0.0	0.0	0.0	516.0	-0.151	0.246	
3.0	0.0	0.0	0.0	0.0	516.0	-0.139	0.917	
4.0	0.0	0.0	0.0	0.0	516.0	-0.126	1.333	
5.0	0.0	0.0	0.0	0.0	516.0	-0.113	0.861	
6.0	0.0	0.0	0.0	0.0	516.0	-0.106	0.17	
7.0	0.0	0.0	0.0	0.0	515.0	-0.103	-0.322	
8.0	0.0	0.0	0.0	0.0	515.0	-0.103	-0.454	
9.0	0.0	0.0	0.0	0.0	514.0	-0.093	-0.483	
10.0	0.0	0.0	0.0	0.0	513.0	-0.081	-0.469	
11.0	0.0	0.0	0.0	0.0	513.0	-0.061	-0.387	
12.0	0.0	0.0	0.0	0.0	512.0	-0.039	-0.29	
13.0	0.0	0.0	0.0	0.0	512.0	-0.013	-0.249	
14.0	0.0	0.0	0.0	0.0	510.0	0.01	-0.278	
15.0	0.0	0.0	0.0	0.0	509.0	0.032	-0.24	
0.0	0.0	0.0	0.0	0.0	510.0	0.048	-0.199	
1.0	0.0	0.0	0.0	0.0	510.0	0.055	-0.097	
2.0	0.0	0.0	0.0	0.0	508.0	0.055	-0.231	
3.0	0.0	0.0	0.0	0.0	508.0	0.048	-0.029	
4.0	0.0	0.0	0.0	0.0	507.0	0.045	-0.094	
5.0	0.0	0.0	0.0	0.0	507.0	0.039	-0.038	
6.0	0.0	0.0	0.0	0.0	506.0	0.035	0.044	
7.0	0.0	0.0	0.0	0.0	505.0	0.032	0.085	
8.0	0.0	0.0	0.0	0.0	504.0	0.039	0.138	
9.0	0.0	0.0	0.0	0.0	504.0	0.045	0.199	
10.0	0.0	0.0	0.0	0.0	504.0	0.052	0.144	
11.0	0.0	0.0	0.0	0.0	504.0	0.061	0.088	
12.0	0.0	0.0	0.0	0.0	504.0	0.068	0.082	
13.0	0.0	0.0	0.0	0.0	503.0	0.071	-0.006	
14.0	0.0	0.0	0.0	0.0	502.0	0.071	-0.082	
15.0	0.0	0.0	0.0	0.0	503.0	0.074	-0.1	
0.0	0.0	0.0	0.0	0.0	505.0	0.074	-0.152	
1.0	0.0	0.0	0.0	0.0	506.0	0.071	-0.141	
2.0	0.0	0.0	0.0	0.0	508.0	0.068	-0.126	
3.0	0.0	0.0	0.0	0.0	507.0	0.064	-0.114	
4.0	0.0	0.0	0.0	0.0	508.0	0.061	-0.05	
5.0	0.0	0.0	0.0	0.0	509.0	0.061	-0.126	
6.0	0.0	0.0	0.0	0.0	511.0	0.061	-0.091	
7.0	0.0	0.0	0.0	0.0	512.0	0.068	-0.105	
8.0	0.0	0.0	0.0	0.0	512.0	0.074	0.029	
9.0	0.0	0.0	0.0	0.0	512.0	0.084	-0.009	
10.0	0.0	0.0	0.0	0.0	511.0	0.097	0.0	
11.0	0.0	0.0	0.0	0.0	513.0	0.113	0.038	
12.0	0.0	0.0	0.0	0.0	515.0	0.126	-0.003	
13.0	0.0	0.0	0.0	0.0	516.0	0.142	-0.044	
14.0	0.0	0.0	0.0	0.0	516.0	0.158	-0.015	
15.0	0.0	0.0	0.0	0.0	517.0	0.177	-0.023	
0.0	0.0	0.0	0.0	0.0	518.0	0.19	0.044	
1.0	0.0	0.0	0.0	0.0	518.0	0.2	0.044	
2.0	0.0	0.0	0.0	0.0	516.0	0.206	0.021	
3.0	0.0	0.0	0.0	0.0	516.0	0.213	-0.015	
4.0	0.0	0.0	0.0	0.0	513.0	0.219	-0.032	
5.0	0.0	0.0	0.0	0.0	512.0	0.226	-0.026	
6.0	0.0	0.0	0.0	0.0	509.0	0.232	-0.023	
7.0	0.0	0.0	0.0	0.0	507.0	0.245	-0.006	
8.0	0.0	0.0	0.0	0.0	505.0	0.255	-0.012	
9.0	0.0	0.0	0.0	0.0	504.0	0.264	-0.082	
10.0	0.0	0.0	0.0	0.0	503.0	0.267	0.076	
11.0	0.0	0.0	0.0	0.0	501.0	0.261	0.138	
12.0	0.0	0.0	0.0	0.0	500.0	0.251	0.117	
13.0	0.0	0.0	0.0	0.0	497.0	0.232	0.044	
14.0	0.0	0.0	0.0	0.0	497.0	0.213	0.032	
15.0	0.0	0.0	0.0	0.0	496.0	0.193	-0.029	
0.0	0.0	0.0	0.0	0.0	494.0	0.168	-0.05	
1.0	0.0	0.0	0.0	0.0	495.0	0.148	-0.073	
2.0	0.0	0.0	0.0	0.0	496.0	0.122	-0.126	
3.0	0.0	0.0	0.0	0.0	495.0	0.097	-0.144	
4.0	0.0	0.0	0.0	0.0	494.0	0.071	0.217	
5.0	0.0	0.0	0.0	0.0	494.0	0.048	0.987	
6.0	0.0	0.0	0.0	0.0	493.0	0.023	1.462	
7.0	0.0	0.0	0.0	0.0	493.0	0.003	0.935	
8.0	0.0	0.0	0.0	0.0	491.0	-0.013	0.114	
9.0	0.0	0.0	0.0	0.0	490.0	-0.032	-0.439	
10.0	0.0	0.0	0.0	0.0	488.0	-0.052	-0.527	
11.0	0.0	0.0	0.0	0.0	487.0	-0.064	-0.483	
12.0	0.0	0.0	0.0	0.0	485.0	-0.081	-0.457	
13.0	0.0	0.0	0.0	0.0	486.0	-0.093	-0.378	
14.0	0.0	0.0	0.0	0.0	487.0	-0.11	-0.293	
15.0	0.0	0.0	0.0	0.0	488.0	-0.126	-0.22	
0.0	0.0	0.0	0.0	0.0	489.0	-0.139	-0.199	
1.0	0.0	0.0	0.0	0.0	492.0	-0.151	-0.085	
2.0	0.0	0.0	0.0	0.0	493.0	-0.171	-0.041	
3.0	0.0	0.0	0.0	0.0	494.0	-0.193	-0.032	
4.0	0.0	0.0	0.0	0.0	494.0	-0.222	-0.012	
5.0	0.0	0.0	0.0	0.0	495.0	-0.255	0.032	
6.0	0.0	0.0	0.0	0.0	495.0	-0.29	0.05	
7.0	0.0	0.0	0.0	0.0	497.0	-0.325	0.044	
8.0	0.0	0.0	0.0	0.0	496.0	-0.364	0.123	
9.0	0.0	0.0	0.0	0.0	496.0	-0.403	0.205	
10.0	0.0	0.0	0.0	0.0	493.0	-0.442	0.199	
11.0	0.0	0.0	0.0	0.0	492.0	-0.48	0.261	
12.0	0.0	0.0	0.0	0.0	492.0	-0.516	0.234	
13.0	0.0	0.0	0.0	0.0	492.0	-0.551	0.249	
14.0	0.0	0.0	0.0	0.0	493.0	-0.583	0.117	
15.0	0.0	0.0	0.0	0.0	492.0	-0.619	0.067	
0.0	0.0	0.0	0.0	0.0	489.0	-0.651	-0.015	
1.0	0.0	0.0	0.0	0.0	489.0	-0.69	-0.149	
2.0	0.0	0.0	0.0	0.0	491.0	-0.725	-0.149	
3.0	0.0	0.0	0.0	0.0	492.0	-0.761	-0.152	
4.0	0.0	0.0	0.0	0.0	494.0	-0.79	-0.199	
5.0	0.0	0.0	0.0	0.0	495.0	-0.822	-0.211	
6.0	0.0	0.0	0.0	0.0	497.0	-0.851	-0.161	
7.0	0.0	0.0	0.0	0.0	500.0	-0.886	-0.155	
8.0	0.0	0.0	0.0	0.0	503.0	-0.912	-0.094	
9.0	0.0	0.0	0.0	0.0	505.0	-0.938	-0.062	
10.0	0.0	0.0	0.0	0.0	505.0	-0.96	-0.012	
11.0	0.0	0.0	0.0	0.0	507.0	-0.973	0.026	
12.0	0.0	0.0	0.0	0.0	506.0	-0.986	-0.076	
13.0	0.0	0.0	0.0	0.0	507.0	-0.996	-0.053	
14.0	0.0	0.0	0.0	0.0	504.0	-0.996	-0.103	
15.0	0.0	0.0	0.0	0.0	503.0	-0.999	-0.012	
0.0	0.0	0.0	0.0	0.0	502.0	-0.999	-0.009	
1.0	0.0	0.0	0.0	0.0	502.0	-0.999	0.018	
2.0	0.0	0.0	0.0	0.0	501.0	-1.002	0.012	
3.0	0.0	0.0	0.0	0.0	502.0	-1.005	-0.029	
4.0	0.0	0.0	0.0	0.0	502.0	-1.012	0.018	
5.0	0.0	0.0	0.0	0.0	501.0	-1.012	-0.029	
6.0	0.0	0.0	0.0	0.0	499.0	-1.015	-0.059	
7.0	0.0	0.0	0.0	0.0	497.0	-1.012	0.026	
8.0	0.0	0.0	0.0	0.0	499.0	-1.009	-0.003	
9.0	0.0	0.0	0.0	0.0	500.0	-1.002	-0.012	
10.0	0.0	0.0	0.0	0.0	501.0	-0.996	0.082	
11.0	0.0	0.0	0.0	0.0	503.0	-0.989	0.021	
12.0	0.0	0.0	0.0	0.0	506.0	-0.983	-0.006	
13.0	0.0	0.0	0.0	0.0	509.0	-0.976	0.064	
14.0	0.0	0.0	0.0	0.0	510.0	-0.967	0.12	
15.0	0.0	0.0	0.0	0.0	512.0	-0.957	0.032	
0.0	0.0	0.0	0.0	0.0	513.0	-0.947	-0.053	
1.0	0.0	0.0	0.0	0.0	513.0	-0.935	-0.062	
2.0	0.0	0.0	0.0	0.0	512.0	-0.922	-0.082	
3.0	0.0	0.0	0.0	0.0	511.0	-0.906	-0.144	
4.0	0.0	0.0	0.0	0.0	512.0	-0.899	-0.085	
5.0	0.0	0.0	0.0	0.0	511.0	-0.889	-0.129	
6.0	0.0	0.0	0.0	0.0	509.0	-0.877	-0.126	
7.0	0.0	0.0	0.0	0.0	508.0	-0.87	0.393	
8.0	0.0	0.0	0.0	0.0	508.0	-0.864	1.336	
9.0	0.0	0.0	0.0	0.0	508.0	-0.854	1.494	
10.0	0.0	0.0	0.0	0.0	506.0	-0.844	0.68	
11.0	0.0	0.0	0.0	0.0	505.0	-0.841	-0.164	
12.0	0.0	0.0	0.0	0.0	504.0	-0.831	-0.513	
13.0	0.0	0.0	0.0	0.0	503.0	-0.822	-0.521	
14.0	0.0	0.0	0.0	0.0	503.0	-0.809	-0.442	
15.0	0.0	0.0	0.0	0.0	504.0	-0.802	-0.448	
0.0	0.0	0.0	0.0	0.0	504.0	-0.796	-0.41	
1.0	0.0	0.0	0.0	0.0	504.0	-0.799	-0.343	
2.0	0.0	0.0	0.0	0.0	502.0	-0.799	-0.255	
3.0	0.0	0.0	0.0	0.0	504.0	-0.796	-0.185	
4.0	0.0	0.0	0.0	0.0	506.0	-0.796	-0.088	
5.0	0.0	0.0	0.0	0.0	508.0	-0.796	-0.097	
6.0	0.0	0.0	0.0	0.0	507.0	-0.802	-0.111	
7.0	0.0	0.0	0.0	0.0	507.0	-0.806	-0.05	
8.0	0.0	0.0	0.0	0.0	507.0	-0.819	-0.05	
9.0	0.0	0.0	0.0	0.0	507.0	-0.828	0.018	
10.0	0.0	0.0	0.0	0.0	506.0	-0.841	0.067	
11.0	0.0	0.0	0.0	0.0	508.0	-0.848	0.082	
12.0	0.0	0.0	0.0	0.0	506.0	-0.857	0.155	
13.0	0.0	0.0	0.0	0.0	506.0	-0.857	0.146	
14.0	0.0	0.0	0.0	0.0	506.0	-0.851	0.114	
15.0	0.0	0.0	0.0	0.0	504.0	-0.851	0.167	
0.0	0.0	0.0	0.0	0.0	502.0	-0.841	0.132	
1.0	0.0	0.0	0.0	0.0	500.0	-0.831	0.085	
2.0	0.0	0.0	0.0	0.0	499.0	-0.828	-0.003	
3.0	0.0	0.0	0.0	0.0	499.0	-0.819	-0.05	
4.0	0.0	0.0	0.0	0.0	500.0	-0.819	-0.105	
5.0	0.0	0.0	0.0	0.0	502.0	-0.819	-0.126	
6.0	0.0	0.0	0.0	0.0	503.0	-0.815	-0.1	
7.0	0.0	0.0	0.0	0.0	502.0	-0.812	-0.085	
8.0	0.0	0.0	0.0	0.0	501.0	-0.806	-0.129	
9.0	0.0	0.0	0.0	0.0	502.0	-0.799	-0.132	
10.0	0.0	0.0	0.0	0.0	504.0	-0.79	-0.067	
11.0	0.0	0.0	0.0	0.0	505.0	-0.773	-0.056	
12.0	0.0	0.0	0.0	0.0	504.0	-0.757	-0.053	
13.0	0.0	0.0	0.0	0.0	503.0	-0.738	-0.006	
14.0	0.0	0.0	0.0	0.0	500.0	-0.719	-0.018	
15.0	0.0	0.0	0.0	0.0	500.0	-0.699	-0.044	
0.0	0.0	0.0	0.0	0.0	500.0	-0.68	-0.012	
1.0	0.0	0.0	0.0	0.0	500.0	-0.664	0.009	
2.0	0.0	0.0	0.0	0.0	503.0	-0.648	0.006	
3.0	0.0	0.0	0.0	0.0	503.0	-0.635	0.018	
4.0	0.0	0.0	0.0	0.0	504.0	-0.625	0.015	
5.0	0.0	0.0	0.0	0.0	503.0	-0.622	0.0	
6.0	0.0	0.0	0.0	0.0	503.0	-0.616	0.009	
7.0	0.0	0.0	0.0	0.0	502.0	-0.616	-0.006	
8.0	0.0	0.0	0.0	0.0	503.0	-0.619	-0.006	
9.0	0.0	0.0	0.0	0.0	504.0	-0.625	0.015	
10.0	0.0	0.0	0.0	0.0	505.0	-0.628	0.0	
11.0	0.0	0.0	0.0	0.0	505.0	-0.635	-0.029	
12.0	0.0	0.0	0.0	0.0	507.0	-0.641	-0.026	
13.0	0.0	0.0	0.0	0.0	507.0	-0.648	0.012	
14.0	0.0	0.0	0.0	0.0	508.0	-0.657	0.003	
15.0	0.0	0.0	0.0	0.0	507.0	-0.667	0.085	
0.0	0.0	0.0	0.0	0.0	507.0	-0.68	0.062	
1.0	0.0	0.0	0.0	0.0	508.0	-0.693	0.117	
2.0	0.0	0.0	0.0	0.0	507.0	-0.709	0.103	
3.0	0.0	0.0	0.0	0.0	505.0	-0.725	0.082	
4.0	0.0	0.0	0.0	0.0	505.0	-0.738	-0.009	
5.0	0.0	0.0	0.0	0.0	506.0	-0.751	-0.094	
6.0	0.0	0.0	0.0	0.0	507.0	-0.761	-0.126	
7.0	0.0	0.0	0.0	0.0	508.0	-0.77	-0.132	
8.0	0.0	0.0	0.0	0.0	509.0	-0.78	-0.214	
9.0	0.0	0.0	0.0	0.0	508.0	-0.783	-0.188	
10.0	0.0	0.0	0.0	0.0	508.0	-0.78	0.311	
11.0	0.0	0.0	0.0	0.0	506.0	-0.783	1.228	
12.0	0.0	0.0	0.0	0.0	502.0	-0.79	1.456	
13.0	0.0	0.0	0.0	0.0	496.0	-0.799	0.539	
14.0	0.0	0.0	0.0	0.0	492.0	-0.819	-0.217	
15.0	0.0	0.0	0.0	0.0	489.0	-0.841	-0.583	
0.0	0.0	0.0	0.0	0.0	487.0	-0.867	-0.51	
1.0	0.0	0.0	0.0	0.0	487.0	-0.889	-0.513	
2.0	0.0	0.0	0.0	0.0	486.0	-0.918	-0.434	
3.0	0.0	0.0	0.0	0.0	485.0	-0.954	-0.387	
4.0	0.0	0.0	0.0	0.0	486.0	-0.983	-0.264	
5.0	0.0	0.0	0.0	0.0	486.0	-0.999	-0.226	
6.0	0.0	0.0	0.0	0.0	488.0	-1.009	-0.188	
7.0	0.0	0.0	0.0	0.0	492.0	-1.009	-0.167	
8.0	0.0	0.0	0.0	0.0	495.0	-1.009	-0.164	
9.0	0.0	0.0	0.0	0.0	498.0	-1.012	-0.179	
10.0	0.0	0.0	0.0	0.0	500.0	-1.022	-0.088	
11.0	0.0	0.0	0.0	0.0	500.0	-1.041	-0.023	
12.0	0.0	0.0	0.0	0.0	498.0	-1.057	0.108	
13.0	0.0	0.0	0.0	0.0	499.0	-1.076	0.144	
14.0	0.0	0.0	0.0	0.0	499.0	-1.096	0.299	
15.0	0.0	0.0	0.0	0.0	498.0	-1.112	0.325	
0.0	0.0	0.0	0.0	0.0	495.0	-1.125	0.337	
1.0	0.0	0.0	0.0	0.0	495.0	-1.134	0.281	
2.0	0.0	0.0	0.0	0.0	495.0	-1.138	0.161	
3.0	0.0	0.0	0.0	0.0	495.0	-1.144	0.059	
4.0	0.0	0.0	0.0	0.0	496.0	-1.141	-0.038	
5.0	0.0	0.0	0.0	0.0	497.0	-1.141	-0.161	
6.0	0.0	0.0	0.0	0.0	499.0	-1.141	-0.202	
7.0	0.0	0.0	0.0	0.0	500.0	-1.144	-0.214	
8.0	0.0	0.0	0.0	0.0	499.0	-1.138	-0.205	
9.0	0.0	0.0	0.0	0.0	500.0	-1.128	-0.24	
10.0	0.0	0.0	0.0	0.0	501.0	-1.125	-0.164	
11.0	0.0	0.0	0.0	0.0	503.0	-1.115	-0.114	
12.0	0.0	0.0	0.0	0.0	503.0	-1.112	-0.103	
13.0	0.0	0.0	0.0	0.0	506.0	-1.099	-0.144	
14.0	0.0	0.0	0.0	0.0	507.0	-1.086	-0.111	
15.0	0.0	0.0	0.0	0.0	507.0	-1.076	-0.138	
0.0	0.0	0.0	0.0	0.0	508.0	-1.057	-0.111	
1.0	0.0	0.0	0.0	0.0	509.0	-1.044	-0.105	
2.0	0.0	0.0	0.0	0.0	509.0	-1.038	-0.085	
3.0	0.0	0.0	0.0	0.0	510.0	-1.031	0.009	
4.0	0.0	0.0	0.0	0.0	510.0	-1.031	0.015	
5.0	0.0	0.0	0.0	0.0	511.0	-1.038	-0.015	
6.0	0.0	0.0	0.0	0.0	510.0	-1.051	0.064	
7.0	0.0	0.0	0.0	0.0	510.0	-1.063	0.059	
8.0	0.0	0.0	0.0	0.0	510.0	-1.08	0.015	
9.0	0.0	0.0	0.0	0.0	508.0	-1.089	-0.056	
10.0	0.0	0.0	0.0	0.0	505.0	-1.096	-0.103	
11.0	0.0	0.0	0.0	0.0	505.0	-1.105	-0.067	
12.0	0.0	0.0	0.0	0.0	505.0	-1.105	-0.114	
13.0	0.0	0.0	0.0	0.0	503.0	-1.102	-0.064	
14.0	0.0	0.0	0.0	0.0	502.0	-1.099	-0.044	
15.0	0.0	0.0	0.0	0.0	501.0	-1.086	-0.006	
0.0	0.0	0.0	0.0	0.0	500.0	-1.083	0.038	
1.0	0.0	0.0	0.0	0.0	501.0	-1.073	0.091	
2.0	0.0	0.0	0.0	0.0	500.0	-1.063	0.132	
3.0	0.0	0.0	0.0	0.0	499.0	-1.047	0.237	
4.0	0.0	0.0	0.0	0.0	498.0	-1.028	0.167	
5.0	0.0	0.0	0.0	0.0	499.0	-1.009	0.05	
6.0	0.0	0.0	0.0	0.0	499.0	-0.983	-0.05	
7.0	0.0	0.0	0.0	0.0	499.0	-0.96	-0.111	
8.0	0.0	0.0	0.0	0.0	501.0	-0.941	-0.105	
9.0	0.0	0.0	0.0	0.0	503.0	-0.925	-0.132	
10.0	0.0	0.0	0.0	0.0	505.0	-0.909	-0.167	
11.0	0.0	0.0	0.0	0.0	507.0	-0.893	-0.108	
12.0	0.0	0.0	0.0	0.0	509.0	-0.877	0.498	
13.0	0.0	0.0	0.0	0.0	509.0	-0.86	1.304	
14.0	0.0	0.0	0.0	0.0	510.0	-0.841	1.289	
15.0	0.0	0.0	0.0	0.0	508.0	-0.825	0.53	
0.0	0.0	0.0	0.0	0.0	505.0	-0.802	-0.152	
1.0	0.0	0.0	0.0	0.0	502.0	-0.786	-0.454	
2.0	0.0	0.0	0.0	0.0	501.0	-0.764	-0.46	
3.0	0.0	0.0	0.0	0.0	499.0	-0.735	-0.434	
4.0	0.0	0.0	0.0	0.0	498.0	-0.703	-0.401	
5.0	0.0	0.0	0.0	0.0	497.0	-0.664	-0.357	
6.0	0.0	0.0	0.0	0.0	496.0	-0.622	-0.316	
7.0	0.0	0.0	0.0	0.0	495.0	-0.583	-0.246	
8.0	0.0	0.0	0.0	0.0	495.0	-0.545	-0.202	
9.0	0.0	0.0	0.0	0.0	495.0	-0.503	-0.117	
10.0	0.0	0.0	0.0	0.0	495.0	-0.471	-0.085	
11.0	0.0	0.0	0.0	0.0	494.0	-0.445	-0.053	
12.0	0.0	0.0	0.0	0.0	494.0	-0.435	-0.029	
13.0	0.0	0.0	0.0	0.0	493.0	-0.432	0.0	
14.0	0.0	0.0	0.0	0.0	494.0	-0.435	0.038	
15.0	0.0	0.0	0.0	0.0	495.0	-0.435	0.094	
0.0	0.0	0.0	0.0	0.0	494.0	-0.429	0.105	
1.0	0.0	0.0	0.0	0.0	495.0	-0.413	0.123	
2.0	0.0	0.0	0.0	0.0	496.0	-0.393	0.196	
3.0	0.0	0.0	0.0	0.0	498.0	-0.371	0.199	
4.0	0.0	0.0	0.0	0.0	497.0	-0.348	0.182	
5.0	0.0	0.0	0.0	0.0	498.0	-0.329	0.152	
6.0	0.0	0.0	0.0	0.0	501.0	-0.309	0.064	
7.0	0.0	0.0	0.0	0.0	502.0	-0.296	-0.015	
8.0	0.0	0.0	0.0	0.0	502.0	-0.284	-0.053	
9.0	0.0	0.0	0.0	0.0	504.0	-0.28	-0.111	
10.0	0.0	0.0	0.0	0.0	505.0	-0.287	-0.114	
11.0	0.0	0.0	0.0	0.0	508.0	-0.306	-0.135	
12.0	0.0	0.0	0.0	0.0	508.0	-0.335	-0.176	
13.0	0.0	0.0	0.0	0.0	510.0	-0.374	-0.117	
14.0	0.0	0.0	0.0	0.0	513.0	-0.413	-0.1	
15.0	0.0	0.0	0.0	0.0	514.0	-0.445	-0.114	
0.0	0.0	0.0	0.0	0.0	515.0	-0.48	-0.152	
1.0	0.0	0.0	0.0	0.0	516.0	-0.506	-0.094	
2.0	0.0	0.0	0.0	0.0	516.0	-0.529	-0.126	
3.0	0.0	0.0	0.0	0.0	517.0	-0.554	-0.076	
4.0	0.0	0.0	0.0	0.0	516.0	-0.57	-0.085	
5.0	0.0	0.0	0.0	0.0	516.0	-0.59	-0.088	
6.0	0.0	0.0	0.0	0.0	515.0	-0.599	-0.117	
7.0	0.0	0.0	0.0	0.0	512.0	-0.606	-0.117	
8.0	0.0	0.0	0.0	0.0	512.0	-0.609	-0.12	
9.0	0.0	0.0	0.0	0.0	508.0	-0.619	-0.132	
10.0	0.0	0.0	0.0	0.0	504.0	-0.622	-0.135	
11.0	0.0	0.0	0.0	0.0	500.0	-0.625	-0.103	
12.0	0.0	0.0	0.0	0.0	499.0	-0.625	-0.062	
13.0	0.0	0.0	0.0	0.0	497.0	-0.622	-0.023	
14.0	0.0	0.0	0.0	0.0	496.0	-0.619	0.015	
15.0	0.0	0.0	0.0	0.0	497.0	-0.612	0.021	
0.0	0.0	0.0	0.0	0.0	499.0	-0.606	0.088	
1.0	0.0	0.0	0.0	0.0	499.0	-0.603	0.082	
2.0	0.0	0.0	0.0	0.0	498.0	-0.593	0.158	
3.0	0.0	0.0	0.0	0.0	498.0	-0.59	0.182	
4.0	0.0	0.0	0.0	0.0	498.0	-0.58	0.158	
5.0	0.0	0.0	0.0	0.0	499.0	-0.574	0.114	
6.0	0.0	0.0	0.0	0.0	502.0	-0.567	0.026	
7.0	0.0	0.0	0.0	0.0	502.0	-0.564	-0.047	
8.0	0.0	0.0	0.0	0.0	502.0	-0.561	-0.038	
9.0	0.0	0.0	0.0	0.0	503.0	-0.561	-0.038	
10.0	0.0	0.0	0.0	0.0	504.0	-0.567	-0.053	
11.0	0.0	0.0	0.0	0.0	505.0	-0.574	-0.117	
12.0	0.0	0.0	0.0	0.0	505.0	-0.577	0.249	
13.0	0.0	0.0	0.0	0.0	506.0	-0.58	1.002	
14.0	0.0	0.0	0.0	0.0	506.0	-0.587	1.409	
15.0	0.0	0.0	0.0	0.0	507.0	-0.596	0.82	
0.0	0.0	0.0	0.0	0.0	505.0	-0.606	0.1	
1.0	0.0	0.0	0.0	0.0	507.0	-0.622	-0.337	
2.0	0.0	0.0	0.0	0.0	504.0	-0.638	-0.445	
3.0	0.0	0.0	0.0	0.0	504.0	-0.645	-0.451	
4.0	0.0	0.0	0.0	0.0	503.0	-0.648	-0.39	
5.0	0.0	0.0	0.0	0.0	504.0	-0.632	-0.328	
6.0	0.0	0.0	0.0	0.0	504.0	-0.612	-0.311	
7.0	0.0	0.0	0.0	0.0	503.0	-0.59	-0.24	
8.0	0.0	0.0	0.0	0.0	501.0	-0.564	-0.229	
9.0	0.0	0.0	0.0	0.0	500.0	-0.538	-0.144	
10.0	0.0	0.0	0.0	0.0	500.0	-0.512	-0.108	
11.0	0.0	0.0	0.0	0.0	498.0	-0.5	-0.094	
12.0	0.0	0.0	0.0	0.0	498.0	-0.49	-0.073	
13.0	0.0	0.0	0.0	0.0	499.0	-0.48	-0.003	
14.0	0.0	0.0	0.0	0.0	499.0	-0.471	0.056	
15.0	0.0	0.0	0.0	0.0	498.0	-0.464	0.023	
0.0	0.0	0.0	0.0	0.0	497.0	-0.454	0.076	
1.0	0.0	0.0	0.0	0.0	496.0	-0.442	0.158	
2.0	0.0	0.0	0.0	0.0	495.0	-0.422	0.149	
3.0	0.0	0.0	0.0	0.0	497.0	-0.406	0.12	
4.0	0.0	0.0	0.0	0.0	499.0	-0.39	0.105	
5.0	0.0	0.0	0.0	0.0	500.0	-0.374	0.088	
6.0	0.0	0.0	0.0	0.0	502.0	-0.361	0.029	
7.0	0.0	0.0	0.0	0.0	504.0	-0.348	0.021	
8.0	0.0	0.0	0.0	0.0	502.0	-0.338	-0.029	
9.0	0.0	0.0	0.0	0.0	502.0	-0.325	-0.082	
10.0	0.0	0.0	0.0	0.0	506.0	-0.316	-0.117	
11.0	0.0	0.0	0.0	0.0	509.0	-0.309	-0.079	
12.0	0.0	0.0	0.0	0.0	513.0	-0.306	-0.097	
13.0	0.0	0.0	0.0	0.0	515.0	-0.306	-0.135	
14.0	0.0	0.0	0.0	0.0	516.0	-0.313	-0.088	
15.0	0.0	0.0	0.0	0.0	517.0	-0.319	-0.047	
0.0	0.0	0.0	0.0	0.0	518.0	-0.322	-0.038	
1.0	0.0	0.0	0.0	0.0	518.0	-0.322	-0.047	
2.0	0.0	0.0	0.0	0.0	519.0	-0.319	-0.035	
3.0	0.0	0.0	0.0	0.0	516.0	-0.316	0.044	
4.0	0.0	0.0	0.0	0.0	515.0	-0.303	0.038	
5.0	0.0	0.0	0.0	0.0	515.0	-0.287	0.05	
6.0	0.0	0.0	0.0	0.0	513.0	-0.271	0.021	
7.0	0.0	0.0	0.0	0.0	513.0	-0.251	0.003	
8.0	0.0	0.0	0.0	0.0	514.0	-0.235	-0.015	
9.0	0.0	0.0	0.0	0.0	512.0	-0.219	-0.047	
10.0	0.0	0.0	0.0	0.0	512.0	-0.203	-0.056	
11.0	0.0	0.0	0.0	0.0	509.0	-0.187	-0.047	
12.0	0.0	0.0	0.0	0.0	505.0	-0.171	-0.073	
13.0	0.0	0.0	0.0	0.0	502.0	-0.151	-0.1	
14.0	0.0	0.0	0.0	0.0	502.0	-0.126	-0.082	
15.0	0.0	0.0	0.0	0.0	504.0	-0.1	-0.038	
0.0	0.0	0.0	0.0	0.0	505.0	-0.074	-0.006	
1.0	0.0	0.0	0.0	0.0	506.0	-0.048	0.012	
2.0	0.0	0.0	0.0	0.0	507.0	-0.016	0.064	
3.0	0.0	0.0	0.0	0.0	508.0	0.01	0.135	
4.0	0.0	0.0	0.0	0.0	508.0	0.042	0.129	
5.0	0.0	0.0	0.0	0.0	508.0	0.074	0.047	
6.0	0.0	0.0	0.0	0.0	509.0	0.103	-0.015	
7.0	0.0	0.0	0.0	0.0	507.0	0.132	-0.108	
8.0	0.0	0.0	0.0	0.0	506.0	0.161	-0.091	
9.0	0.0	0.0	0.0	0.0	505.0	0.187	-0.062	
10.0	0.0	0.0	0.0	0.0	504.0	0.209	-0.105	
11.0	0.0	0.0	0.0	0.0	503.0	0.235	-0.079	
12.0	0.0	0.0	0.0	0.0	504.0	0.258	0.264	
13.0	0.0	0.0	0.0	0.0	505.0	0.287	1.066	
14.0	0.0	0.0	0.0	0.0	503.0	0.316	1.494	
15.0	0.0	0.0	0.0	0.0	501.0	0.345	0.891	
0.0	0.0	0.0	0.0	0.0	502.0	0.374	0.129	
1.0	0.0	0.0	0.0	0.0	501.0	0.396	-0.349	
2.0	0.0	0.0	0.0	0.0	502.0	0.419	-0.466	
3.0	0.0	0.0	0.0	0.0	502.0	0.442	-0.469	
4.0	0.0	0.0	0.0	0.0	503.0	0.467	-0.428	
5.0	0.0	0.0	0.0	0.0	503.0	0.493	-0.396	
6.0	0.0	0.0	0.0	0.0	505.0	0.525	-0.308	
7.0	0.0	0.0	0.0	0.0	505.0	0.558	-0.234	
8.0	0.0	0.0	0.0	0.0	504.0	0.596	-0.217	
9.0	0.0	0.0	0.0	0.0	504.0	0.638	-0.211	
10.0	0.0	0.0	0.0	0.0	504.0	0.674	-0.123	
11.0	0.0	0.0	0.0	0.0	504.0	0.699	-0.07	
12.0	0.0	0.0	0.0	0.0	503.0	0.719	-0.044	
13.0	0.0	0.0	0.0	0.0	503.0	0.732	-0.032	
14.0	0.0	0.0	0.0	0.0	503.0	0.744	-0.003	
15.0	0.0	0.0	0.0	0.0	504.0	0.754	0.021	
0.0	0.0	0.0	0.0	0.0	504.0	0.761	0.07	
1.0	0.0	0.0	0.0	0.0	504.0	0.773	0.138	
2.0	0.0	0.0	0.0	0.0	504.0	0.79	0.138	
3.0	0.0	0.0	0.0	0.0	504.0	0.809	0.132	
4.0	0.0	0.0	0.0	0.0	502.0	0.831	0.129	
5.0	0.0	0.0	0.0	0.0	502.0	0.857	0.062	
6.0	0.0	0.0	0.0	0.0	501.0	0.883	0.041	
7.0	0.0	0.0	0.0	0.0	501.0	0.912	-0.032	
8.0	0.0	0.0	0.0	0.0	499.0	0.931	-0.097	
9.0	0.0	0.0	0.0	0.0	500.0	0.954	-0.114	
10.0	0.0	0.0	0.0	0.0	501.0	0.97	-0.114	
11.0	0.0	0.0	0.0	0.0	502.0	0.98	-0.114	
12.0	0.0	0.0	0.0	0.0	506.0	0.986	-0.132	
13.0	0.0	0.0	0.0	0.0	510.0	0.989	-0.111	
14.0	0.0	0.0	0.0	0.0	508.0	0.989	-0.111	
15.0	0.0	0.0	0.0	0.0	511.0	0.986	-0.108	
0.0	0.0	0.0	0.0	0.0	513.0	0.983	-0.067	
1.0	0.0	0.0	0.0	0.0	515.0	0.98	-0.006	
2.0	0.0	0.0	0.0	0.0	515.0	0.98	-0.006	
3.0	0.0	0.0	0.0	0.0	516.0	0.986	0.038	
4.0	0.0	0.0	0.0	0.0	517.0	1.002	0.012	
5.0	0.0	0.0	0.0	0.0	518.0	1.022	0.012	
6.0	0.0	0.0	0.0	0.0	515.0	1.041	0.032	
7.0	0.0	0.0	0.0	0.0	515.0	1.063	0.009	
8.0	0.0	0.0	0.0	0.0	515.0	1.086	0.05	
9.0	0.0	0.0	0.0	0.0	515.0	1.102	0.023	
10.0	0.0	0.0	0.0	0.0	514.0	1.112	0.056	
11.0	0.0	0.0	0.0	0.0	513.0	1.121	0.032	
12.0	0.0	0.0	0.0	0.0	514.0	1.121	0.056	
13.0	0.0	0.0	0.0	0.0	514.0	1.121	0.05	
14.0	0.0	0.0	0.0	0.0	516.0	1.118	0.059	
15.0	0.0	0.0	0.0	0.0	517.0	1.115	0.047	
0.0	0.0	0.0	0.0	0.0	515.0	1.105	0.059	
1.0	0.0	0.0	0.0	0.0	511.0	1.092	0.059	
2.0	0.0	0.0	0.0	0.0	510.0	1.076	0.012	
3.0	0.0	0.0	0.0	0.0	510.0	1.057	0.044	
4.0	0.0	0.0	0.0	0.0	512.0	1.034	0.114	
5.0	0.0	0.0	0.0	0.0	511.0	1.015	0.111	
6.0	0.0	0.0	0.0	0.0	513.0	0.993	0.064	
7.0	0.0	0.0	0.0	0.0	512.0	0.973	-0.021	
8.0	0.0	0.0	0.0	0.0	512.0	0.954	-0.05	
9.0	0.0	0.0	0.0	0.0	512.0	0.935	-0.132	
10.0	0.0	0.0	0.0	0.0	511.0	0.915	-0.1	
11.0	0.0	0.0	0.0	0.0	511.0	0.889	-0.135	
12.0	0.0	0.0	0.0	0.0	511.0	0.864	-0.179	
13.0	0.0	0.0	0.0	0.0	510.0	0.835	-0.038	
14.0	0.0	0.0	0.0	0.0	510.0	0.806	0.533	
15.0	0.0	0.0	0.0	0.0	508.0	0.78	1.456	
0.0	0.0	0.0	0.0	0.0	506.0	0.754	1.491	
1.0	0.0	0.0	0.0	0.0	506.0	0.732	0.442	
2.0	0.0	0.0	0.0	0.0	505.0	0.703	-0.223	
3.0	0.0	0.0	0.0	0.0	505.0	0.67	-0.551	
4.0	0.0	0.0	0.0	0.0	505.0	0.648	-0.501	
5.0	0.0	0.0	0.0	0.0	505.0	0.619	-0.492	
6.0	0.0	0.0	0.0	0.0	504.0	0.593	-0.454	
7.0	0.0	0.0	0.0	0.0	502.0	0.561	-0.416	
8.0	0.0	0.0	0.0	0.0	500.0	0.529	-0.369	
9.0	0.0	0.0	0.0	0.0	501.0	0.5	-0.264	
10.0	0.0	0.0	0.0	0.0	502.0	0.477	-0.255	
11.0	0.0	0.0	0.0	0.0	502.0	0.451	-0.193	
12.0	0.0	0.0	0.0	0.0	501.0	0.425	-0.17	
13.0	0.0	0.0	0.0	0.0	503.0	0.4	-0.103	
14.0	0.0	0.0	0.0	0.0	503.0	0.367	-0.082	
15.0	0.0	0.0	0.0	0.0	504.0	0.335	-0.041	
0.0	0.0	0.0	0.0	0.0	505.0	0.3	0.0	
1.0	0.0	0.0	0.0	0.0	506.0	0.267	0.067	
2.0	0.0	0.0	0.0	0.0	504.0	0.232	0.079	
3.0	0.0	0.0	0.0	0.0	504.0	0.2	0.111	
4.0	0.0	0.0	0.0	0.0	503.0	0.168	0.164	
5.0	0.0	0.0	0.0	0.0	504.0	0.139	0.103	
6.0	0.0	0.0	0.0	0.0	505.0	0.113	0.012	
7.0	0.0	0.0	0.0	0.0	505.0	0.09	0.006	
8.0	0.0	0.0	0.0	0.0	507.0	0.071	-0.138	
9.0	0.0	0.0	0.0	0.0	507.0	0.055	-0.226	
10.0	0.0	0.0	0.0	0.0	508.0	0.039	-0.258	
11.0	0.0	0.0	0.0	0.0	510.0	0.023	-0.249	
12.0	0.0	0.0	0.0	0.0	513.0	0.003	-0.293	
13.0	0.0	0.0	0.0	0.0	516.0	-0.013	-0.27	
14.0	0.0	0.0	0.0	0.0	519.0	-0.026	-0.252	
15.0	0.0	0.0	0.0	0.0	518.0	-0.039	-0.205	
0.0	0.0	0.0	0.0	0.0	518.0	-0.052	-0.167	
1.0	0.0	0.0	0.0	0.0	516.0	-0.058	-0.158	
2.0	0.0	0.0	0.0	0.0	517.0	-0.064	-0.135	
3.0	0.0	0.0	0.0	0.0	517.0	-0.068	-0.114	
4.0	0.0	0.0	0.0	0.0	520.0	-0.064	-0.12	
5.0	0.0	0.0	0.0	0.0	521.0	-0.058	-0.038	
6.0	0.0	0.0	0.0	0.0	521.0	-0.048	-0.023	
7.0	0.0	0.0	0.0	0.0	522.0	-0.035	-0.009	
8.0	0.0	0.0	0.0	0.0	523.0	-0.023	-0.041	
9.0	0.0	0.0	0.0	0.0	523.0	-0.013	-0.032	
10.0	0.0	0.0	0.0	0.0	524.0	-0.003	-0.026	
11.0	0.0	0.0	0.0	0.0	524.0	0.003	0.012	
12.0	0.0	0.0	0.0	0.0	524.0	0.003	-0.003	
13.0	0.0	0.0	0.0	0.0	525.0	0.0	0.032	
14.0	0.0	0.0	0.0	0.0	525.0	-0.013	0.015	
15.0	0.0	0.0	0.0	0.0	525.0	-0.029	0.023	
0.0	0.0	0.0	0.0	0.0	523.0	-0.052	0.035	
1.0	0.0	0.0	0.0	0.0	523.0	-0.077	0.023	
2.0	0.0	0.0	0.0	0.0	521.0	-0.103	0.026	
3.0	0.0	0.0	0.0	0.0	519.0	-0.132	0.021	
4.0	0.0	0.0	0.0	0.0	517.0	-0.161	0.088	
5.0	0.0	0.0	0.0	0.0	516.0	-0.193	0.105	
6.0	0.0	0.0	0.0	0.0	515.0	-0.229	0.1	
7.0	0.0	0.0	0.0	0.0	514.0	-0.264	0.141	
8.0	0.0	0.0	0.0	0.0	515.0	-0.296	0.208	
9.0	0.0	0.0	0.0	0.0	516.0	-0.329	0.179	
10.0	0.0	0.0	0.0	0.0	517.0	-0.361	0.091	
11.0	0.0	0.0	0.0	0.0	516.0	-0.39	0.047	
12.0	0.0	0.0	0.0	0.0	515.0	-0.416	-0.023	
13.0	0.0	0.0	0.0	0.0	515.0	-0.445	-0.073	
14.0	0.0	0.0	0.0	0.0	516.0	-0.471	-0.059	
15.0	0.0	0.0	0.0	0.0	517.0	-0.503	-0.114	
0.0	0.0	0.0	0.0	0.0	518.0	-0.532	-0.129	
1.0	0.0	0.0	0.0	0.0	519.0	-0.57	0.278	
2.0	0.0	0.0	0.0	0.0	520.0	-0.609	1.131	
3.0	0.0	0.0	0.0	0.0	518.0	-0.645	1.494	
4.0	0.0	0.0	0.0	0.0	519.0	-0.68	0.926	
5.0	0.0	0.0	0.0	0.0	517.0	-0.712	0.032	
6.0	0.0	0.0	0.0	0.0	515.0	-0.751	-0.448	
7.0	0.0	0.0	0.0	0.0	513.0	-0.786	-0.501	
8.0	0.0	0.0	0.0	0.0	513.0	-0.815	-0.492	
9.0	0.0	0.0	0.0	0.0	510.0	-0.848	-0.463	
10.0	0.0	0.0	0.0	0.0	507.0	-0.88	-0.396	
11.0	0.0	0.0	0.0	0.0	504.0	-0.899	-0.313	
12.0	0.0	0.0	0.0	0.0	502.0	-0.912	-0.226	
13.0	0.0	0.0	0.0	0.0	500.0	-0.922	-0.229	
14.0	0.0	0.0	0.0	0.0	500.0	-0.922	-0.167	
15.0	0.0	0.0	0.0	0.0	502.0	-0.922	-0.044	
0.0	0.0	0.0	0.0	0.0	503.0	-0.931	-0.038	
1.0	0.0	0.0	0.0	0.0	504.0	-0.944	0.015	
2.0	0.0	0.0	0.0	0.0	504.0	-0.967	0.032	
3.0	0.0	0.0	0.0	0.0	504.0	-0.989	0.041	
4.0	0.0	0.0	0.0	0.0	503.0	-1.012	0.108	
5.0	0.0	0.0	0.0	0.0	502.0	-1.034	0.167	
6.0	0.0	0.0	0.0	0.0	503.0	-1.06	0.161	
7.0	0.0	0.0	0.0	0.0	503.0	-1.073	0.234	
8.0	0.0	0.0	0.0	0.0	502.0	-1.083	0.27	
9.0	0.0	0.0	0.0	0.0	503.0	-1.083	0.226	
10.0	0.0	0.0	0.0	0.0	505.0	-1.08	0.196	
11.0	0.0	0.0	0.0	0.0	505.0	-1.08	0.126	
12.0	0.0	0.0	0.0	0.0	505.0	-1.073	0.041	
13.0	0.0	0.0	0.0	0.0	508.0	-1.076	-0.082	
14.0	0.0	0.0	0.0	0.0	509.0	-1.073	-0.138	
15.0	0.0	0.0	0.0	0.0	508.0	-1.083	-0.202	
0.0	0.0	0.0	0.0	0.0	508.0	-1.092	-0.202	
1.0	0.0	0.0	0.0	0.0	511.0	-1.102	-0.211	
2.0	0.0	0.0	0.0	0.0	513.0	-1.115	-0.226	
3.0	0.0	0.0	0.0	0.0	515.0	-1.125	-0.188	
4.0	0.0	0.0	0.0	0.0	515.0	-1.138	-0.111	
5.0	0.0	0.0	0.0	0.0	516.0	-1.138	-0.073	
6.0	0.0	0.0	0.0	0.0	518.0	-1.144	-0.067	
7.0	0.0	0.0	0.0	0.0	518.0	-1.141	-0.044	
8.0	0.0	0.0	0.0	0.0	519.0	-1.138	-0.018	
9.0	0.0	0.0	0.0	0.0	520.0	-1.128	-0.009	
10.0	0.0	0.0	0.0	0.0	521.0	-1.125	0.026	
11.0	0.0	0.0	0.0	0.0	522.0	-1.121	0.026	
12.0	0.0	0.0	0.0	0.0	519.0	-1.112	0.085	
13.0	0.0	0.0	0.0	0.0	520.0	-1.112	0.044	
14.0	0.0	0.0	0.0	0.0	520.0	-1.112	0.032	
15.0	0.0	0.0	0.0	0.0	521.0	-1.112	0.035	
0.0	0.0	0.0	0.0	0.0	523.0	-1.112	-0.003	
1.0	0.0	0.0	0.0	0.0	524.0	-1.112	0.044	
2.0	0.0	0.0	0.0	0.0	524.0	-1.109	0.0	
3.0	0.0	0.0	0.0	0.0	524.0	-1.099	0.021	
4.0	0.0	0.0	0.0	0.0	523.0	-1.099	-0.023	
5.0	0.0	0.0	0.0	0.0	523.0	-1.086	-0.029	
6.0	0.0	0.0	0.0	0.0	522.0	-1.083	-0.056	
7.0	0.0	0.0	0.0	0.0	520.0	-1.083	-0.085	
8.0	0.0	0.0	0.0	0.0	520.0	-1.076	-0.047	
9.0	0.0	0.0	0.0	0.0	520.0	-1.076	-0.12	
10.0	0.0	0.0	0.0	0.0	519.0	-1.07	-0.062	
11.0	0.0	0.0	0.0	0.0	518.0	-1.067	-0.023	
12.0	0.0	0.0	0.0	0.0	517.0	-1.06	0.018	
13.0	0.0	0.0	0.0	0.0	516.0	-1.054	-0.018	
14.0	0.0	0.0	0.0	0.0	515.0	-1.047	-0.114	
15.0	0.0	0.0	0.0	0.0	512.0	-1.034	-0.135	
0.0	0.0	0.0	0.0	0.0	511.0	-1.022	-0.097	
1.0	0.0	0.0	0.0	0.0	509.0	-1.012	-0.105	
2.0	0.0	0.0	0.0	0.0	509.0	-1.009	-0.114	
3.0	0.0	0.0	0.0	0.0	509.0	-1.005	-0.214	
4.0	0.0	0.0	0.0	0.0	510.0	-1.009	0.012	
5.0	0.0	0.0	0.0	0.0	508.0	-1.005	0.759	
6.0	0.0	0.0	0.0	0.0	507.0	-1.002	1.324	
7.0	0.0	0.0	0.0	0.0	505.0	-0.986	1.025	
8.0	0.0	0.0	0.0	0.0	505.0	-0.98	0.284	
9.0	0.0	0.0	0.0	0.0	507.0	-0.973	-0.22	
10.0	0.0	0.0	0.0	0.0	508.0	-0.97	-0.448	
11.0	0.0	0.0	0.0	0.0	507.0	-0.964	-0.378	
12.0	0.0	0.0	0.0	0.0	507.0	-0.96	-0.261	
13.0	0.0	0.0	0.0	0.0	508.0	-0.944	-0.272	
14.0	0.0	0.0	0.0	0.0	508.0	-0.925	-0.261	
15.0	0.0	0.0	0.0	0.0	507.0	-0.902	-0.237	
0.0	0.0	0.0	0.0	0.0	507.0	-0.883	-0.237	
1.0	0.0	0.0	0.0	0.0	507.0	-0.864	-0.267	
2.0	0.0	0.0	0.0	0.0	508.0	-0.851	-0.199	
3.0	0.0	0.0	0.0	0.0	508.0	-0.844	-0.1	
4.0	0.0	0.0	0.0	0.0	507.0	-0.851	-0.1	
5.0	0.0	0.0	0.0	0.0	507.0	-0.864	-0.07	
6.0	0.0	0.0	0.0	0.0	508.0	-0.88	-0.053	
7.0	0.0	0.0	0.0	0.0	507.0	-0.899	0.015	
8.0	0.0	0.0	0.0	0.0	507.0	-0.912	0.038	
9.0	0.0	0.0	0.0	0.0	508.0	-0.925	0.029	
10.0	0.0	0.0	0.0	0.0	507.0	-0.931	0.079	
11.0	0.0	0.0	0.0	0.0	507.0	-0.931	0.094	
12.0	0.0	0.0	0.0	0.0	507.0	-0.931	0.111	
13.0	0.0	0.0	0.0	0.0	507.0	-0.931	0.056	
14.0	0.0	0.0	0.0	0.0	506.0	-0.928	0.056	
15.0	0.0	0.0	0.0	0.0	508.0	-0.931	-0.108	
0.0	0.0	0.0	0.0	0.0	508.0	-0.938	-0.026	
1.0	0.0	0.0	0.0	0.0	510.0	-0.944	-0.129	
2.0	0.0	0.0	0.0	0.0	511.0	-0.951	-0.167	
3.0	0.0	0.0	0.0	0.0	514.0	-0.957	-0.19	
4.0	0.0	0.0	0.0	0.0	516.0	-0.96	-0.173	
5.0	0.0	0.0	0.0	0.0	516.0	-0.97	-0.19	
6.0	0.0	0.0	0.0	0.0	517.0	-0.98	-0.105	
7.0	0.0	0.0	0.0	0.0	518.0	-0.989	-0.067	
8.0	0.0	0.0	0.0	0.0	517.0	-0.999	-0.053	
9.0	0.0	0.0	0.0	0.0	517.0	-1.005	-0.079	
10.0	0.0	0.0	0.0	0.0	517.0	-1.005	-0.015	
11.0	0.0	0.0	0.0	0.0	517.0	-1.002	-0.026	
12.0	0.0	0.0	0.0	0.0	517.0	-0.993	0.009	
13.0	0.0	0.0	0.0	0.0	519.0	-0.983	0.038	
14.0	0.0	0.0	0.0	0.0	520.0	-0.967	0.05	
15.0	0.0	0.0	0.0	0.0	521.0	-0.954	0.056	
0.0	0.0	0.0	0.0	0.0	521.0	-0.938	0.062	
1.0	0.0	0.0	0.0	0.0	519.0	-0.918	0.026	
2.0	0.0	0.0	0.0	0.0	519.0	-0.902	0.056	
3.0	0.0	0.0	0.0	0.0	518.0	-0.883	0.026	
4.0	0.0	0.0	0.0	0.0	518.0	-0.857	0.021	
5.0	0.0	0.0	0.0	0.0	518.0	-0.835	0.026	
6.0	0.0	0.0	0.0	0.0	516.0	-0.806	0.003	
7.0	0.0	0.0	0.0	0.0	515.0	-0.777	0.047	
8.0	0.0	0.0	0.0	0.0	516.0	-0.748	0.062	
9.0	0.0	0.0	0.0	0.0	517.0	-0.715	0.041	
10.0	0.0	0.0	0.0	0.0	519.0	-0.683	0.059	
11.0	0.0	0.0	0.0	0.0	518.0	-0.651	0.038	
12.0	0.0	0.0	0.0	0.0	518.0	-0.625	0.029	
13.0	0.0	0.0	0.0	0.0	518.0	-0.596	0.111	
14.0	0.0	0.0	0.0	0.0	516.0	-0.57	0.164	
15.0	0.0	0.0	0.0	0.0	515.0	-0.541	0.141	
0.0	0.0	0.0	0.0	0.0	514.0	-0.522	0.056	
1.0	0.0	0.0	0.0	0.0	512.0	-0.503	-0.026	
2.0	0.0	0.0	0.0	0.0	512.0	-0.48	-0.064	
3.0	0.0	0.0	0.0	0.0	509.0	-0.461	-0.082	
4.0	0.0	0.0	0.0	0.0	506.0	-0.445	-0.073	
5.0	0.0	0.0	0.0	0.0	505.0	-0.435	-0.132	
6.0	0.0	0.0	0.0	0.0	507.0	-0.422	-0.111	
7.0	0.0	0.0	0.0	0.0	507.0	-0.413	0.302	
8.0	0.0	0.0	0.0	0.0	508.0	-0.403	1.102	
9.0	0.0	0.0	0.0	0.0	510.0	-0.39	1.368	
10.0	0.0	0.0	0.0	0.0	510.0	-0.377	0.683	
11.0	0.0	0.0	0.0	0.0	511.0	-0.367	-0.032	
12.0	0.0	0.0	0.0	0.0	510.0	-0.364	-0.428	
13.0	0.0	0.0	0.0	0.0	509.0	-0.351	-0.478	
14.0	0.0	0.0	0.0	0.0	510.0	-0.342	-0.425	
15.0	0.0	0.0	0.0	0.0	510.0	-0.325	-0.422	
0.0	0.0	0.0	0.0	0.0	508.0	-0.303	-0.325	
1.0	0.0	0.0	0.0	0.0	507.0	-0.274	-0.226	
2.0	0.0	0.0	0.0	0.0	508.0	-0.248	-0.202	
3.0	0.0	0.0	0.0	0.0	509.0	-0.216	-0.199	
4.0	0.0	0.0	0.0	0.0	509.0	-0.187	-0.117	
5.0	0.0	0.0	0.0	0.0	511.0	-0.164	-0.094	
6.0	0.0	0.0	0.0	0.0	511.0	-0.151	0.003	
7.0	0.0	0.0	0.0	0.0	511.0	-0.145	0.021	
8.0	0.0	0.0	0.0	0.0	510.0	-0.142	0.032	
9.0	0.0	0.0	0.0	0.0	509.0	-0.145	0.073	
10.0	0.0	0.0	0.0	0.0	509.0	-0.148	0.1	
11.0	0.0	0.0	0.0	0.0	508.0	-0.155	0.138	
12.0	0.0	0.0	0.0	0.0	505.0	-0.155	0.17	
13.0	0.0	0.0	0.0	0.0	504.0	-0.155	0.202	
14.0	0.0	0.0	0.0	0.0	502.0	-0.151	0.138	
15.0	0.0	0.0	0.0	0.0	501.0	-0.142	0.185	
0.0	0.0	0.0	0.0	0.0	499.0	-0.132	0.117	
1.0	0.0	0.0	0.0	0.0	500.0	-0.129	0.021	
2.0	0.0	0.0	0.0	0.0	503.0	-0.119	-0.023	
3.0	0.0	0.0	0.0	0.0	505.0	-0.113	-0.103	
4.0	0.0	0.0	0.0	0.0	506.0	-0.106	-0.141	
5.0	0.0	0.0	0.0	0.0	508.0	-0.1	-0.188	
6.0	0.0	0.0	0.0	0.0	511.0	-0.09	-0.123	
7.0	0.0	0.0	0.0	0.0	515.0	-0.084	-0.141	
8.0	0.0	0.0	0.0	0.0	516.0	-0.081	-0.144	
9.0	0.0	0.0	0.0	0.0	519.0	-0.077	-0.155	
10.0	0.0	0.0	0.0	0.0	521.0	-0.074	-0.117	
11.0	0.0	0.0	0.0	0.0	523.0	-0.068	-0.105	
12.0	0.0	0.0	0.0	0.0	523.0	-0.058	-0.091	
13.0	0.0	0.0	0.0	0.0	524.0	-0.042	-0.044	
14.0	0.0	0.0	0.0	0.0	525.0	-0.019	-0.026	
15.0	0.0	0.0	0.0	0.0	525.0	0.013	-0.021	
0.0	0.0	0.0	0.0	0.0	524.0	0.052	-0.029	
1.0	0.0	0.0	0.0	0.0	523.0	0.097	-0.035	
2.0	0.0	0.0	0.0	0.0	523.0	0.139	-0.114	
3.0	0.0	0.0	0.0	0.0	521.0	0.18	-0.179	
4.0	0.0	0.0	0.0	0.0	519.0	0.222	-0.272	
5.0	0.0	0.0	0.0	0.0	519.0	0.264	-0.372	
6.0	0.0	0.0	0.0	0.0	519.0	0.309	-0.354	
7.0	0.0	0.0	0.0	0.0	520.0	0.348	-0.237	
8.0	0.0	0.0	0.0	0.0	519.0	0.387	-0.085	
9.0	0.0	0.0	0.0	0.0	519.0	0.425	0.035	
10.0	0.0	0.0	0.0	0.0	520.0	0.464	0.073	
11.0	0.0	0.0	0.0	0.0	519.0	0.5	0.094	
12.0	0.0	0.0	0.0	0.0	518.0	0.532	-0.006	
13.0	0.0	0.0	0.0	0.0	515.0	0.561	0.003	
14.0	0.0	0.0	0.0	0.0	516.0	0.583	-0.035	
15.0	0.0	0.0	0.0	0.0	516.0	0.603	0.026	
0.0	0.0	0.0	0.0	0.0	515.0	0.622	0.012	
1.0	0.0	0.0	0.0	0.0	514.0	0.641	0.082	
2.0	0.0	0.0	0.0	0.0	516.0	0.664	0.205	
3.0	0.0	0.0	0.0	0.0	518.0	0.674	0.287	
4.0	0.0	0.0	0.0	0.0	518.0	0.683	0.316	
5.0	0.0	0.0	0.0	0.0	518.0	0.69	0.258	
6.0	0.0	0.0	0.0	0.0	517.0	0.69	0.173	
7.0	0.0	0.0	0.0	0.0	516.0	0.69	0.091	
8.0	0.0	0.0	0.0	0.0	516.0	0.686	0.044	
9.0	0.0	0.0	0.0	0.0	515.0	0.68	-0.015	
10.0	0.0	0.0	0.0	0.0	515.0	0.674	-0.038	
11.0	0.0	0.0	0.0	0.0	513.0	0.657	0.334	
12.0	0.0	0.0	0.0	0.0	513.0	0.635	1.207	
13.0	0.0	0.0	0.0	0.0	512.0	0.612	1.494	
14.0	0.0	0.0	0.0	0.0	511.0	0.587	1.037	
15.0	0.0	0.0	0.0	0.0	509.0	0.564	0.12	
0.0	0.0	0.0	0.0	0.0	507.0	0.535	-0.34	
1.0	0.0	0.0	0.0	0.0	507.0	0.509	-0.466	
2.0	0.0	0.0	0.0	0.0	510.0	0.483	-0.466	
3.0	0.0	0.0	0.0	0.0	510.0	0.454	-0.492	
4.0	0.0	0.0	0.0	0.0	508.0	0.425	-0.416	
5.0	0.0	0.0	0.0	0.0	509.0	0.4	-0.331	
6.0	0.0	0.0	0.0	0.0	509.0	0.377	-0.302	
7.0	0.0	0.0	0.0	0.0	508.0	0.361	-0.234	
8.0	0.0	0.0	0.0	0.0	506.0	0.351	-0.237	
9.0	0.0	0.0	0.0	0.0	505.0	0.338	-0.208	
10.0	0.0	0.0	0.0	0.0	503.0	0.325	-0.19	
11.0	0.0	0.0	0.0	0.0	504.0	0.309	-0.114	
12.0	0.0	0.0	0.0	0.0	503.0	0.287	-0.07	
13.0	0.0	0.0	0.0	0.0	504.0	0.264	-0.038	
14.0	0.0	0.0	0.0	0.0	505.0	0.242	-0.026	
15.0	0.0	0.0	0.0	0.0	506.0	0.219	0.032	
0.0	0.0	0.0	0.0	0.0	505.0	0.197	0.088	
1.0	0.0	0.0	0.0	0.0	506.0	0.174	0.135	
2.0	0.0	0.0	0.0	0.0	507.0	0.151	0.138	
3.0	0.0	0.0	0.0	0.0	508.0	0.132	0.1	
4.0	0.0	0.0	0.0	0.0	508.0	0.116	0.088	
5.0	0.0	0.0	0.0	0.0	508.0	0.1	0.044	
6.0	0.0	0.0	0.0	0.0	510.0	0.084	-0.076	
7.0	0.0	0.0	0.0	0.0	511.0	0.068	-0.161	
8.0	0.0	0.0	0.0	0.0	510.0	0.048	-0.252	
9.0	0.0	0.0	0.0	0.0	511.0	0.035	-0.319	
10.0	0.0	0.0	0.0	0.0	512.0	0.023	-0.322	
11.0	0.0	0.0	0.0	0.0	513.0	0.01	-0.311	
12.0	0.0	0.0	0.0	0.0	515.0	0.0	-0.24	
13.0	0.0	0.0	0.0	0.0	517.0	-0.006	-0.208	
14.0	0.0	0.0	0.0	0.0	520.0	-0.006	-0.17	
15.0	0.0	0.0	0.0	0.0	522.0	0.0	-0.138	
0.0	0.0	0.0	0.0	0.0	523.0	0.013	-0.126	
1.0	0.0	0.0	0.0	0.0	525.0	0.039	-0.091	
2.0	0.0	0.0	0.0	0.0	526.0	0.064	-0.059	
3.0	0.0	0.0	0.0	0.0	526.0	0.09	0.021	
4.0	0.0	0.0	0.0	0.0	525.0	0.119	0.035	
5.0	0.0	0.0	0.0	0.0	526.0	0.145	0.05	
6.0	0.0	0.0	0.0	0.0	526.0	0.174	0.088	
7.0	0.0	0.0	0.0	0.0	526.0	0.2	0.105	
8.0	0.0	0.0	0.0	0.0	526.0	0.219	0.114	
9.0	0.0	0.0	0.0	0.0	526.0	0.235	0.123	
10.0	0.0	0.0	0.0	0.0	526.0	0.248	0.149	
11.0	0.0	0.0	0.0	0.0	523.0	0.255	0.141	
12.0	0.0	0.0	0.0	0.0	523.0	0.261	0.173	
13.0	0.0	0.0	0.0	0.0	521.0	0.264	0.141	
14.0	0.0	0.0	0.0	0.0	520.0	0.267	0.1	
15.0	0.0	0.0	0.0	0.0	520.0	0.271	0.073	
0.0	0.0	0.0	0.0	0.0	519.0	0.271	0.047	
1.0	0.0	0.0	0.0	0.0	518.0	0.271	0.05	
2.0	0.0	0.0	0.0	0.0	519.0	0.274	0.044	
3.0	0.0	0.0	0.0	0.0	517.0	0.271	0.021	
4.0	0.0	0.0	0.0	0.0	513.0	0.264	0.041	
5.0	0.0	0.0	0.0	0.0	514.0	0.251	0.047	
6.0	0.0	0.0	0.0	0.0	512.0	0.238	0.053	
7.0	0.0	0.0	0.0	0.0	511.0	0.219	0.038	
8.0	0.0	0.0	0.0	0.0	511.0	0.2	0.1	
9.0	0.0	0.0	0.0	0.0	509.0	0.177	0.111	
10.0	0.0	0.0	0.0	0.0	510.0	0.148	0.053	
11.0	0.0	0.0	0.0	0.0	511.0	0.119	-0.006	
12.0	0.0	0.0	0.0	0.0	511.0	0.084	-0.064	
13.0	0.0	0.0	0.0	0.0	511.0	0.048	-0.17	
14.0	0.0	0.0	0.0	0.0	510.0	0.01	-0.196	
15.0	0.0	0.0	0.0	0.0	509.0	-0.026	-0.105	
0.0	0.0	0.0	0.0	0.0	509.0	-0.068	-0.179	
1.0	0.0	0.0	0.0	0.0	510.0	-0.106	-0.12	
2.0	0.0	0.0	0.0	0.0	510.0	-0.148	0.393	
3.0	0.0	0.0	0.0	0.0	511.0	-0.19	1.31	
4.0	0.0	0.0	0.0	0.0	511.0	-0.232	1.494	
5.0	0.0	0.0	0.0	0.0	510.0	-0.277	0.58	
6.0	0.0	0.0	0.0	0.0	511.0	-0.322	-0.164	
7.0	0.0	0.0	0.0	0.0	510.0	-0.367	-0.48	
8.0	0.0	0.0	0.0	0.0	510.0	-0.413	-0.519	
9.0	0.0	0.0	0.0	0.0	511.0	-0.454	-0.469	
10.0	0.0	0.0	0.0	0.0	512.0	-0.496	-0.451	
11.0	0.0	0.0	0.0	0.0	510.0	-0.538	-0.404	
12.0	0.0	0.0	0.0	0.0	509.0	-0.574	-0.393	
13.0	0.0	0.0	0.0	0.0	507.0	-0.599	-0.337	
14.0	0.0	0.0	0.0	0.0	505.0	-0.625	-0.302	
15.0	0.0	0.0	0.0	0.0	503.0	-0.641	-0.243	
0.0	0.0	0.0	0.0	0.0	502.0	-0.664	-0.205	
1.0	0.0	0.0	0.0	0.0	501.0	-0.69	-0.161	
2.0	0.0	0.0	0.0	0.0	501.0	-0.722	-0.132	
3.0	0.0	0.0	0.0	0.0	501.0	-0.754	-0.155	
4.0	0.0	0.0	0.0	0.0	499.0	-0.79	-0.038	
5.0	0.0	0.0	0.0	0.0	499.0	-0.825	-0.041	
6.0	0.0	0.0	0.0	0.0	500.0	-0.857	0.009	
7.0	0.0	0.0	0.0	0.0	501.0	-0.886	0.064	
8.0	0.0	0.0	0.0	0.0	501.0	-0.912	0.138	
9.0	0.0	0.0	0.0	0.0	504.0	-0.931	0.17	
10.0	0.0	0.0	0.0	0.0	507.0	-0.954	0.19	
11.0	0.0	0.0	0.0	0.0	508.0	-0.97	0.164	
12.0	0.0	0.0	0.0	0.0	509.0	-0.986	0.085	
13.0	0.0	0.0	0.0	0.0	510.0	-1.009	0.012	
14.0	0.0	0.0	0.0	0.0	511.0	-1.025	-0.076	
15.0	0.0	0.0	0.0	0.0	512.0	-1.047	-0.111	
0.0	0.0	0.0	0.0	0.0	515.0	-1.07	-0.144	
1.0	0.0	0.0	0.0	0.0	516.0	-1.096	-0.152	
2.0	0.0	0.0	0.0	0.0	516.0	-1.125	-0.146	
3.0	0.0	0.0	0.0	0.0	516.0	-1.144	-0.144	
4.0	0.0	0.0	0.0	0.0	519.0	-1.17	-0.129	
5.0	0.0	0.0	0.0	0.0	520.0	-1.192	-0.129	
6.0	0.0	0.0	0.0	0.0	519.0	-1.212	-0.135	
7.0	0.0	0.0	0.0	0.0	520.0	-1.221	-0.038	
8.0	0.0	0.0	0.0	0.0	520.0	-1.225	-0.047	
9.0	0.0	0.0	0.0	0.0	521.0	-1.225	-0.044	
10.0	0.0	0.0	0.0	0.0	522.0	-1.221	-0.038	
11.0	0.0	0.0	0.0	0.0	523.0	-1.218	-0.062	
12.0	0.0	0.0	0.0	0.0	522.0	-1.215	-0.032	
13.0	0.0	0.0	0.0	0.0	521.0	-1.202	-0.05	
14.0	0.0	0.0	0.0	0.0	519.0	-1.202	-0.073	
15.0	0.0	0.0	0.0	0.0	518.0	-1.205	-0.05	
0.0	0.0	0.0	0.0	0.0	515.0	-1.208	-0.088	
1.0	0.0	0.0	0.0	0.0	513.0	-1.202	-0.073	
2.0	0.0	0.0	0.0	0.0	511.0	-1.202	-0.047	
3.0	0.0	0.0	0.0	0.0	511.0	-1.196	-0.056	
4.0	0.0	0.0	0.0	0.0	511.0	-1.189	-0.053	
5.0	0.0	0.0	0.0	0.0	515.0	-1.189	-0.064	
6.0	0.0	0.0	0.0	0.0	516.0	-1.183	-0.073	
7.0	0.0	0.0	0.0	0.0	516.0	-1.173	-0.073	
8.0	0.0	0.0	0.0	0.0	516.0	-1.167	-0.07	
9.0	0.0	0.0	0.0	0.0	515.0	-1.167	-0.085	
10.0	0.0	0.0	0.0	0.0	515.0	-1.16	-0.053	
11.0	0.0	0.0	0.0	0.0	512.0	-1.154	0.015	
12.0	0.0	0.0	0.0	0.0	512.0	-1.15	0.088	
13.0	0.0	0.0	0.0	0.0	513.0	-1.147	0.117	
