# OpenSignals Text File Format. Version 1
# {"84:BA:20:AE:BC:92": {"position": 0, "device": "bitalino_rev", "device name": "84:BA:20:AE:BC:92", "device connection": "BTH84:BA:20:AE:BC:92", "sampling rate": 100, "resolution": [4, 1, 1, 1, 1, 10, 10, 10], "firmware version": 1282, "comments": "", "keywords": "", "mode": 0, "sync interval": 2, "date": "2025-10-22", "time": "11:5:32.439", "channels": [2, 3, 4], "sensor": ["RAW", "RESPBIT", "ECGBIT"], "label": ["A2", "A3", "A4"], "column": ["nSeq", "I1", "I2", "O1", "O2", "A2", "A3", "A4"], "special": [{}, {}, {}], "digital IO": [0, 0, 1, 1], "convertedValues": 0}}
# EndOfHeader
0	0	0	0	0	600	323	531	
1	0	0	0	0	599	329	532	
2	0	0	0	0	597	335	519	
3	0	0	0	0	593	342	528	
4	0	0	0	0	588	348	518	
5	0	0	0	0	584	355	514	
6	0	0	0	0	577	361	510	
7	0	0	0	0	570	368	519	
8	0	0	0	0	564	374	517	
9	0	0	0	0	558	380	514	
10	0	0	0	0	553	385	516	
11	0	0	0	0	549	390	507	
12	0	0	0	0	545	395	519	
13	0	0	0	0	541	398	521	
14	0	0	0	0	539	402	518	
15	0	0	0	0	538	405	527	
0	0	0	0	0	539	409	520	
1	0	0	0	0	540	412	512	
2	0	0	0	0	540	415	518	
3	0	0	0	0	542	417	520	
4	0	0	0	0	542	420	518	
5	0	0	0	0	543	422	512	
6	0	0	0	0	543	424	507	
7	0	0	0	0	543	427	507	
8	0	0	0	0	544	428	507	
9	0	0	0	0	545	430	508	
10	0	0	0	0	546	432	504	
11	0	0	0	0	548	433	520	
12	0	0	0	0	548	435	516	
13	0	0	0	0	547	436	527	
14	0	0	0	0	548	438	524	
15	0	0	0	0	547	440	519	
0	0	0	0	0	545	440	518	
1	0	0	0	0	542	441	519	
2	0	0	0	0	538	443	513	
3	0	0	0	0	536	444	514	
4	0	0	0	0	535	445	523	
5	0	0	0	0	532	446	515	
6	0	0	0	0	531	447	516	
7	0	0	0	0	530	448	521	
8	0	0	0	0	528	449	518	
9	0	0	0	0	528	449	526	
10	0	0	0	0	528	450	523	
11	0	0	0	0	528	450	531	
12	0	0	0	0	525	450	533	
13	0	0	0	0	524	450	523	
14	0	0	0	0	522	450	520	
15	0	0	0	0	520	449	532	
0	0	0	0	0	517	448	519	
1	0	0	0	0	512	446	525	
2	0	0	0	0	508	445	518	
3	0	0	0	0	506	444	521	
4	0	0	0	0	504	443	511	
5	0	0	0	0	500	441	517	
6	0	0	0	0	497	440	518	
7	0	0	0	0	494	439	516	
8	0	0	0	0	492	437	510	
9	0	0	0	0	490	436	511	
10	0	0	0	0	487	434	540	
11	0	0	0	0	484	432	553	
12	0	0	0	0	483	431	565	
13	0	0	0	0	483	428	526	
14	0	0	0	0	484	426	491	
15	0	0	0	0	485	423	475	
0	0	0	0	0	486	420	453	
1	0	0	0	0	486	417	458	
2	0	0	0	0	487	414	468	
3	0	0	0	0	488	411	472	
4	0	0	0	0	487	407	466	
5	0	0	0	0	486	403	495	
6	0	0	0	0	484	400	472	
7	0	0	0	0	483	396	625	
8	0	0	0	0	484	392	751	
9	0	0	0	0	484	389	675	
10	0	0	0	0	484	385	525	
11	0	0	0	0	484	382	475	
12	0	0	0	0	483	379	440	
13	0	0	0	0	481	376	443	
14	0	0	0	0	479	371	442	
15	0	0	0	0	477	368	443	
0	0	0	0	0	472	364	461	
1	0	0	0	0	471	359	468	
2	0	0	0	0	470	354	470	
3	0	0	0	0	471	349	466	
4	0	0	0	0	471	344	484	
5	0	0	0	0	473	339	496	
6	0	0	0	0	473	333	496	
7	0	0	0	0	472	328	508	
8	0	0	0	0	472	323	513	
9	0	0	0	0	472	318	512	
10	0	0	0	0	470	314	518	
11	0	0	0	0	470	309	518	
12	0	0	0	0	470	304	522	
13	0	0	0	0	470	299	529	
14	0	0	0	0	470	294	527	
15	0	0	0	0	469	291	522	
0	0	0	0	0	467	285	520	
1	0	0	0	0	465	281	515	
2	0	0	0	0	465	276	526	
3	0	0	0	0	466	271	520	
4	0	0	0	0	471	268	521	
5	0	0	0	0	477	263	534	
6	0	0	0	0	483	260	530	
7	0	0	0	0	492	256	511	
8	0	0	0	0	503	252	499	
9	0	0	0	0	513	248	491	
10	0	0	0	0	523	246	470	
11	0	0	0	0	532	242	433	
12	0	0	0	0	540	240	431	
13	0	0	0	0	547	237	433	
14	0	0	0	0	553	233	428	
15	0	0	0	0	558	232	426	
0	0	0	0	0	560	230	442	
1	0	0	0	0	561	228	444	
2	0	0	0	0	563	226	451	
3	0	0	0	0	564	224	452	
4	0	0	0	0	565	223	463	
5	0	0	0	0	568	224	477	
6	0	0	0	0	571	224	469	
7	0	0	0	0	575	225	479	
8	0	0	0	0	577	226	483	
9	0	0	0	0	582	229	482	
10	0	0	0	0	586	232	498	
11	0	0	0	0	590	236	517	
12	0	0	0	0	593	241	505	
13	0	0	0	0	596	246	498	
14	0	0	0	0	600	254	510	
15	0	0	0	0	602	259	519	
0	0	0	0	0	600	268	510	
1	0	0	0	0	599	277	516	
2	0	0	0	0	593	285	516	
3	0	0	0	0	590	293	516	
4	0	0	0	0	586	302	518	
5	0	0	0	0	581	314	522	
6	0	0	0	0	574	325	512	
7	0	0	0	0	568	339	514	
8	0	0	0	0	564	354	511	
9	0	0	0	0	559	371	513	
10	0	0	0	0	556	390	506	
11	0	0	0	0	552	409	501	
12	0	0	0	0	551	429	507	
13	0	0	0	0	550	449	494	
14	0	0	0	0	549	468	504	
15	0	0	0	0	548	486	504	
0	0	0	0	0	547	504	518	
1	0	0	0	0	548	523	533	
2	0	0	0	0	548	541	514	
3	0	0	0	0	548	560	531	
4	0	0	0	0	547	579	520	
5	0	0	0	0	548	596	518	
6	0	0	0	0	548	612	524	
7	0	0	0	0	547	628	530	
8	0	0	0	0	546	643	522	
9	0	0	0	0	546	656	528	
10	0	0	0	0	544	670	515	
11	0	0	0	0	541	681	518	
12	0	0	0	0	538	693	526	
13	0	0	0	0	536	703	528	
14	0	0	0	0	533	712	521	
15	0	0	0	0	529	721	531	
0	0	0	0	0	527	729	517	
1	0	0	0	0	525	736	514	
2	0	0	0	0	522	743	521	
3	0	0	0	0	520	751	527	
4	0	0	0	0	518	759	524	
5	0	0	0	0	515	766	523	
6	0	0	0	0	515	774	525	
7	0	0	0	0	513	782	530	
8	0	0	0	0	512	789	540	
9	0	0	0	0	510	796	535	
10	0	0	0	0	510	802	529	
11	0	0	0	0	509	808	532	
12	0	0	0	0	506	815	532	
13	0	0	0	0	504	819	538	
14	0	0	0	0	505	824	537	
15	0	0	0	0	504	828	534	
0	0	0	0	0	504	831	532	
1	0	0	0	0	502	833	529	
2	0	0	0	0	500	834	530	
3	0	0	0	0	499	835	535	
4	0	0	0	0	498	836	529	
5	0	0	0	0	497	836	530	
6	0	0	0	0	496	835	520	
7	0	0	0	0	495	834	529	
8	0	0	0	0	494	832	537	
9	0	0	0	0	494	830	543	
10	0	0	0	0	493	827	546	
11	0	0	0	0	492	823	573	
12	0	0	0	0	492	819	568	
13	0	0	0	0	492	815	575	
14	0	0	0	0	493	810	534	
15	0	0	0	0	493	806	514	
0	0	0	0	0	492	800	502	
1	0	0	0	0	491	796	497	
2	0	0	0	0	491	790	508	
3	0	0	0	0	490	785	503	
4	0	0	0	0	487	780	510	
5	0	0	0	0	483	774	515	
6	0	0	0	0	481	769	509	
7	0	0	0	0	480	765	614	
8	0	0	0	0	479	760	766	
9	0	0	0	0	478	756	739	
10	0	0	0	0	477	752	555	
11	0	0	0	0	477	749	476	
12	0	0	0	0	475	746	481	
13	0	0	0	0	473	743	479	
14	0	0	0	0	473	740	471	
15	0	0	0	0	473	737	475	
0	0	0	0	0	473	735	483	
1	0	0	0	0	472	731	497	
2	0	0	0	0	473	727	495	
3	0	0	0	0	472	723	503	
4	0	0	0	0	471	719	504	
5	0	0	0	0	470	714	516	
6	0	0	0	0	471	709	515	
7	0	0	0	0	470	704	516	
8	0	0	0	0	472	699	518	
9	0	0	0	0	474	694	532	
10	0	0	0	0	474	688	529	
11	0	0	0	0	475	683	527	
12	0	0	0	0	476	677	528	
13	0	0	0	0	478	671	521	
14	0	0	0	0	477	666	515	
15	0	0	0	0	474	659	519	
0	0	0	0	0	469	654	512	
1	0	0	0	0	465	648	504	
2	0	0	0	0	464	643	516	
3	0	0	0	0	465	639	536	
4	0	0	0	0	467	634	531	
5	0	0	0	0	470	630	529	
6	0	0	0	0	476	625	528	
7	0	0	0	0	484	621	541	
8	0	0	0	0	491	618	527	
9	0	0	0	0	499	614	506	
10	0	0	0	0	507	611	499	
11	0	0	0	0	515	607	471	
12	0	0	0	0	524	604	453	
13	0	0	0	0	531	602	445	
14	0	0	0	0	537	600	431	
15	0	0	0	0	543	598	457	
0	0	0	0	0	549	596	451	
1	0	0	0	0	553	595	458	
2	0	0	0	0	556	595	466	
3	0	0	0	0	558	594	472	
4	0	0	0	0	561	594	476	
5	0	0	0	0	563	594	484	
6	0	0	0	0	565	595	483	
7	0	0	0	0	568	595	493	
8	0	0	0	0	572	596	485	
9	0	0	0	0	575	598	501	
10	0	0	0	0	579	600	505	
11	0	0	0	0	584	601	510	
12	0	0	0	0	588	603	506	
13	0	0	0	0	591	605	509	
14	0	0	0	0	594	607	514	
15	0	0	0	0	596	608	516	
0	0	0	0	0	598	609	508	
1	0	0	0	0	596	611	512	
2	0	0	0	0	593	612	505	
3	0	0	0	0	591	614	505	
4	0	0	0	0	588	615	506	
5	0	0	0	0	583	618	504	
6	0	0	0	0	578	620	498	
7	0	0	0	0	573	621	497	
8	0	0	0	0	568	623	494	
9	0	0	0	0	563	625	500	
10	0	0	0	0	560	627	491	
11	0	0	0	0	558	630	487	
12	0	0	0	0	555	632	486	
13	0	0	0	0	554	634	485	
14	0	0	0	0	553	636	492	
15	0	0	0	0	552	639	492	
0	0	0	0	0	550	641	491	
1	0	0	0	0	550	643	492	
2	0	0	0	0	547	645	489	
3	0	0	0	0	546	647	491	
4	0	0	0	0	544	648	483	
5	0	0	0	0	542	650	492	
6	0	0	0	0	539	651	491	
7	0	0	0	0	537	652	487	
8	0	0	0	0	536	653	484	
9	0	0	0	0	534	654	484	
10	0	0	0	0	532	655	494	
11	0	0	0	0	532	655	494	
12	0	0	0	0	532	655	495	
13	0	0	0	0	531	655	497	
14	0	0	0	0	531	654	510	
15	0	0	0	0	530	654	504	
0	0	0	0	0	527	653	498	
1	0	0	0	0	526	652	505	
2	0	0	0	0	524	650	504	
3	0	0	0	0	522	648	507	
4	0	0	0	0	518	647	504	
5	0	0	0	0	516	645	507	
6	0	0	0	0	516	643	507	
7	0	0	0	0	515	642	500	
8	0	0	0	0	513	640	500	
9	0	0	0	0	510	639	506	
10	0	0	0	0	507	638	511	
11	0	0	0	0	505	637	507	
12	0	0	0	0	502	637	504	
13	0	0	0	0	497	636	511	
14	0	0	0	0	494	636	505	
15	0	0	0	0	492	636	508	
0	0	0	0	0	488	636	511	
1	0	0	0	0	484	636	509	
2	0	0	0	0	483	636	498	
3	0	0	0	0	483	636	505	
4	0	0	0	0	483	637	504	
5	0	0	0	0	481	638	496	
6	0	0	0	0	481	639	493	
7	0	0	0	0	482	640	501	
8	0	0	0	0	479	640	496	
9	0	0	0	0	476	641	505	
10	0	0	0	0	476	642	513	
11	0	0	0	0	472	642	521	
12	0	0	0	0	472	643	541	
13	0	0	0	0	471	643	541	
14	0	0	0	0	470	643	538	
15	0	0	0	0	470	644	524	
0	0	0	0	0	469	644	507	
1	0	0	0	0	470	644	483	
2	0	0	0	0	468	644	479	
3	0	0	0	0	468	644	482	
4	0	0	0	0	466	645	489	
5	0	0	0	0	465	645	493	
6	0	0	0	0	464	645	499	
7	0	0	0	0	464	645	473	
8	0	0	0	0	462	645	529	
9	0	0	0	0	461	644	695	
10	0	0	0	0	461	644	755	
11	0	0	0	0	462	644	613	
12	0	0	0	0	462	644	504	
13	0	0	0	0	461	643	472	
14	0	0	0	0	463	643	470	
15	0	0	0	0	463	643	466	
0	0	0	0	0	464	643	462	
1	0	0	0	0	462	643	468	
2	0	0	0	0	462	642	465	
3	0	0	0	0	461	641	470	
4	0	0	0	0	459	641	475	
5	0	0	0	0	457	640	478	
6	0	0	0	0	454	639	486	
7	0	0	0	0	451	638	492	
8	0	0	0	0	450	637	488	
9	0	0	0	0	448	636	495	
10	0	0	0	0	446	634	504	
11	0	0	0	0	445	632	506	
12	0	0	0	0	444	630	501	
13	0	0	0	0	444	627	503	
14	0	0	0	0	443	625	516	
15	0	0	0	0	443	623	519	
0	0	0	0	0	445	620	509	
1	0	0	0	0	443	618	514	
2	0	0	0	0	444	615	518	
3	0	0	0	0	445	613	518	
4	0	0	0	0	444	610	522	
5	0	0	0	0	444	607	527	
6	0	0	0	0	444	604	520	
7	0	0	0	0	448	600	524	
8	0	0	0	0	454	596	524	
9	0	0	0	0	462	593	520	
10	0	0	0	0	470	589	516	
11	0	0	0	0	480	586	493	
12	0	0	0	0	489	582	467	
13	0	0	0	0	498	579	448	
14	0	0	0	0	506	575	429	
15	0	0	0	0	515	571	420	
0	0	0	0	0	522	568	434	
1	0	0	0	0	527	564	438	
2	0	0	0	0	532	560	439	
3	0	0	0	0	536	556	444	
4	0	0	0	0	538	552	446	
5	0	0	0	0	537	548	451	
6	0	0	0	0	538	544	459	
7	0	0	0	0	538	540	465	
8	0	0	0	0	540	536	472	
9	0	0	0	0	541	532	475	
10	0	0	0	0	544	528	483	
11	0	0	0	0	550	524	495	
12	0	0	0	0	554	520	492	
13	0	0	0	0	559	516	500	
14	0	0	0	0	563	512	497	
15	0	0	0	0	568	508	508	
0	0	0	0	0	571	504	502	
1	0	0	0	0	572	499	508	
2	0	0	0	0	574	494	525	
3	0	0	0	0	572	490	528	
4	0	0	0	0	569	485	534	
5	0	0	0	0	565	480	549	
6	0	0	0	0	561	476	550	
7	0	0	0	0	555	471	549	
8	0	0	0	0	550	467	547	
9	0	0	0	0	547	462	549	
10	0	0	0	0	542	457	548	
11	0	0	0	0	539	453	552	
12	0	0	0	0	538	449	537	
13	0	0	0	0	538	445	519	
14	0	0	0	0	537	440	513	
15	0	0	0	0	537	436	511	
0	0	0	0	0	536	432	504	
1	0	0	0	0	533	429	510	
2	0	0	0	0	531	425	510	
3	0	0	0	0	531	422	515	
4	0	0	0	0	529	419	512	
5	0	0	0	0	529	416	519	
6	0	0	0	0	526	413	515	
7	0	0	0	0	526	411	516	
8	0	0	0	0	524	408	516	
9	0	0	0	0	521	405	522	
10	0	0	0	0	520	402	518	
11	0	0	0	0	518	400	518	
12	0	0	0	0	517	398	526	
13	0	0	0	0	515	396	520	
14	0	0	0	0	511	393	521	
15	0	0	0	0	509	391	520	
0	0	0	0	0	506	389	524	
1	0	0	0	0	503	387	523	
2	0	0	0	0	500	384	518	
3	0	0	0	0	497	382	517	
4	0	0	0	0	495	379	527	
5	0	0	0	0	493	377	516	
6	0	0	0	0	491	374	519	
7	0	0	0	0	487	371	519	
8	0	0	0	0	485	368	521	
9	0	0	0	0	483	366	523	
10	0	0	0	0	483	363	523	
11	0	0	0	0	483	361	529	
12	0	0	0	0	483	358	526	
13	0	0	0	0	482	355	521	
14	0	0	0	0	481	353	510	
15	0	0	0	0	483	351	511	
0	0	0	0	0	483	349	512	
1	0	0	0	0	483	347	511	
2	0	0	0	0	483	346	516	
3	0	0	0	0	483	344	515	
4	0	0	0	0	482	343	510	
5	0	0	0	0	481	341	516	
6	0	0	0	0	480	340	513	
7	0	0	0	0	479	340	519	
8	0	0	0	0	475	339	510	
9	0	0	0	0	473	339	518	
10	0	0	0	0	472	338	522	
11	0	0	0	0	470	339	521	
12	0	0	0	0	465	339	536	
13	0	0	0	0	463	339	551	
14	0	0	0	0	462	339	553	
15	0	0	0	0	463	339	560	
0	0	0	0	0	463	339	522	
1	0	0	0	0	462	339	510	
2	0	0	0	0	462	339	499	
3	0	0	0	0	461	338	500	
4	0	0	0	0	461	337	505	
5	0	0	0	0	460	337	509	
6	0	0	0	0	460	336	507	
7	0	0	0	0	461	335	507	
8	0	0	0	0	461	335	508	
9	0	0	0	0	459	334	630	
10	0	0	0	0	459	333	763	
11	0	0	0	0	457	332	702	
12	0	0	0	0	456	331	511	
13	0	0	0	0	455	331	463	
14	0	0	0	0	455	330	453	
15	0	0	0	0	458	329	458	
0	0	0	0	0	460	328	448	
1	0	0	0	0	462	327	460	
2	0	0	0	0	462	326	462	
3	0	0	0	0	462	324	463	
4	0	0	0	0	463	322	472	
5	0	0	0	0	462	321	475	
6	0	0	0	0	463	319	487	
7	0	0	0	0	464	318	483	
8	0	0	0	0	463	318	487	
9	0	0	0	0	462	316	497	
10	0	0	0	0	461	315	495	
11	0	0	0	0	459	314	501	
12	0	0	0	0	456	312	505	
13	0	0	0	0	455	311	518	
14	0	0	0	0	455	311	522	
15	0	0	0	0	453	310	533	
0	0	0	0	0	452	308	530	
1	0	0	0	0	451	307	542	
2	0	0	0	0	451	307	544	
3	0	0	0	0	451	306	536	
4	0	0	0	0	453	305	558	
5	0	0	0	0	453	305	555	
6	0	0	0	0	455	303	558	
7	0	0	0	0	459	303	555	
8	0	0	0	0	462	302	559	
9	0	0	0	0	467	301	555	
10	0	0	0	0	473	301	550	
11	0	0	0	0	480	302	537	
12	0	0	0	0	489	302	506	
13	0	0	0	0	497	302	495	
14	0	0	0	0	506	303	469	
15	0	0	0	0	513	305	446	
0	0	0	0	0	519	305	453	
1	0	0	0	0	524	307	465	
2	0	0	0	0	527	308	462	
3	0	0	0	0	530	311	471	
4	0	0	0	0	534	313	475	
5	0	0	0	0	537	315	476	
6	0	0	0	0	538	317	485	
7	0	0	0	0	539	319	489	
8	0	0	0	0	542	321	501	
9	0	0	0	0	545	323	511	
10	0	0	0	0	548	325	509	
11	0	0	0	0	553	327	528	
12	0	0	0	0	557	329	527	
13	0	0	0	0	560	332	529	
14	0	0	0	0	563	334	531	
15	0	0	0	0	566	337	539	
0	0	0	0	0	568	339	530	
1	0	0	0	0	568	341	536	
2	0	0	0	0	568	343	530	
3	0	0	0	0	566	345	532	
4	0	0	0	0	563	348	528	
5	0	0	0	0	559	350	528	
6	0	0	0	0	556	353	521	
7	0	0	0	0	551	355	518	
8	0	0	0	0	548	357	511	
9	0	0	0	0	544	359	521	
10	0	0	0	0	541	360	508	
11	0	0	0	0	537	362	508	
12	0	0	0	0	535	364	513	
13	0	0	0	0	531	364	513	
14	0	0	0	0	531	366	508	
15	0	0	0	0	529	367	514	
0	0	0	0	0	527	368	518	
1	0	0	0	0	525	369	516	
2	0	0	0	0	522	370	510	
3	0	0	0	0	521	371	508	
4	0	0	0	0	521	372	511	
5	0	0	0	0	520	373	512	
6	0	0	0	0	521	373	513	
7	0	0	0	0	519	375	515	
8	0	0	0	0	519	376	519	
9	0	0	0	0	517	376	517	
10	0	0	0	0	515	377	518	
11	0	0	0	0	514	378	515	
12	0	0	0	0	514	379	517	
13	0	0	0	0	514	379	519	
14	0	0	0	0	514	380	515	
15	0	0	0	0	513	380	521	
0	0	0	0	0	512	380	523	
1	0	0	0	0	510	380	527	
2	0	0	0	0	508	380	524	
3	0	0	0	0	505	379	524	
4	0	0	0	0	502	379	527	
5	0	0	0	0	500	379	529	
6	0	0	0	0	499	378	521	
7	0	0	0	0	498	377	523	
8	0	0	0	0	496	376	513	
9	0	0	0	0	494	375	515	
10	0	0	0	0	492	373	502	
11	0	0	0	0	491	372	500	
12	0	0	0	0	489	371	494	
13	0	0	0	0	486	368	503	
14	0	0	0	0	484	367	504	
15	0	0	0	0	484	365	503	
0	0	0	0	0	483	364	502	
1	0	0	0	0	483	362	518	
2	0	0	0	0	482	359	515	
3	0	0	0	0	483	357	514	
4	0	0	0	0	482	355	509	
5	0	0	0	0	480	353	512	
6	0	0	0	0	478	350	512	
7	0	0	0	0	477	347	515	
8	0	0	0	0	478	345	506	
9	0	0	0	0	477	342	523	
10	0	0	0	0	476	339	512	
11	0	0	0	0	476	337	512	
12	0	0	0	0	475	334	515	
13	0	0	0	0	473	332	521	
14	0	0	0	0	471	331	531	
15	0	0	0	0	472	328	545	
0	0	0	0	0	472	327	544	
1	0	0	0	0	473	325	530	
2	0	0	0	0	472	324	500	
3	0	0	0	0	470	323	475	
4	0	0	0	0	467	323	466	
5	0	0	0	0	465	322	470	
6	0	0	0	0	463	322	471	
7	0	0	0	0	461	324	483	
8	0	0	0	0	460	325	483	
9	0	0	0	0	460	327	489	
10	0	0	0	0	459	329	489	
11	0	0	0	0	458	332	604	
12	0	0	0	0	458	334	755	
13	0	0	0	0	457	336	707	
14	0	0	0	0	454	339	539	
15	0	0	0	0	454	342	489	
0	0	0	0	0	455	345	479	
1	0	0	0	0	456	348	489	
2	0	0	0	0	457	352	495	
3	0	0	0	0	459	355	484	
4	0	0	0	0	460	359	496	
5	0	0	0	0	460	361	491	
6	0	0	0	0	460	364	488	
7	0	0	0	0	462	367	492	
8	0	0	0	0	462	370	486	
9	0	0	0	0	462	372	479	
10	0	0	0	0	462	376	485	
11	0	0	0	0	461	378	487	
12	0	0	0	0	459	380	480	
13	0	0	0	0	457	383	490	
14	0	0	0	0	456	384	501	
15	0	0	0	0	454	386	502	
0	0	0	0	0	452	388	502	
1	0	0	0	0	451	389	500	
2	0	0	0	0	451	390	512	
3	0	0	0	0	451	391	515	
4	0	0	0	0	450	391	519	
5	0	0	0	0	451	391	521	
6	0	0	0	0	452	391	529	
7	0	0	0	0	455	390	549	
8	0	0	0	0	458	389	538	
9	0	0	0	0	461	387	529	
10	0	0	0	0	465	385	536	
11	0	0	0	0	470	384	532	
12	0	0	0	0	474	382	525	
13	0	0	0	0	478	380	513	
14	0	0	0	0	483	378	500	
15	0	0	0	0	491	376	479	
0	0	0	0	0	498	376	457	
1	0	0	0	0	504	373	442	
2	0	0	0	0	510	372	446	
3	0	0	0	0	515	371	449	
4	0	0	0	0	520	370	451	
5	0	0	0	0	523	370	458	
6	0	0	0	0	523	369	467	
7	0	0	0	0	525	369	481	
8	0	0	0	0	526	369	489	
9	0	0	0	0	527	368	506	
10	0	0	0	0	528	369	507	
11	0	0	0	0	530	370	513	
12	0	0	0	0	531	370	527	
13	0	0	0	0	532	370	540	
14	0	0	0	0	535	371	532	
15	0	0	0	0	537	372	528	
0	0	0	0	0	542	372	535	
1	0	0	0	0	544	373	536	
2	0	0	0	0	544	373	525	
3	0	0	0	0	545	373	526	
4	0	0	0	0	547	371	513	
5	0	0	0	0	545	369	515	
6	0	0	0	0	543	368	512	
7	0	0	0	0	542	365	509	
8	0	0	0	0	538	363	500	
9	0	0	0	0	536	359	497	
10	0	0	0	0	532	356	499	
11	0	0	0	0	528	352	500	
12	0	0	0	0	526	348	496	
13	0	0	0	0	525	343	499	
14	0	0	0	0	524	338	496	
15	0	0	0	0	523	333	494	
0	0	0	0	0	521	328	500	
1	0	0	0	0	519	323	502	
2	0	0	0	0	517	316	502	
3	0	0	0	0	517	311	501	
4	0	0	0	0	517	305	505	
5	0	0	0	0	517	298	489	
6	0	0	0	0	516	292	510	
7	0	0	0	0	518	287	520	
8	0	0	0	0	518	281	516	
9	0	0	0	0	518	274	517	
10	0	0	0	0	517	268	515	
11	0	0	0	0	516	260	521	
12	0	0	0	0	516	252	508	
13	0	0	0	0	515	245	505	
14	0	0	0	0	513	239	505	
15	0	0	0	0	511	232	497	
0	0	0	0	0	508	228	500	
1	0	0	0	0	505	224	496	
2	0	0	0	0	502	221	489	
3	0	0	0	0	501	219	497	
4	0	0	0	0	499	217	496	
5	0	0	0	0	499	216	512	
6	0	0	0	0	499	217	500	
7	0	0	0	0	500	219	509	
8	0	0	0	0	499	220	505	
9	0	0	0	0	499	222	500	
10	0	0	0	0	499	226	520	
11	0	0	0	0	498	229	522	
12	0	0	0	0	496	233	521	
13	0	0	0	0	495	238	524	
14	0	0	0	0	492	241	530	
15	0	0	0	0	492	245	531	
0	0	0	0	0	492	250	519	
1	0	0	0	0	490	254	538	
2	0	0	0	0	487	258	536	
3	0	0	0	0	486	262	531	
4	0	0	0	0	484	266	530	
5	0	0	0	0	483	270	512	
6	0	0	0	0	481	273	524	
7	0	0	0	0	481	277	524	
8	0	0	0	0	482	280	525	
9	0	0	0	0	482	282	524	
10	0	0	0	0	482	285	531	
11	0	0	0	0	483	287	543	
12	0	0	0	0	483	289	565	
13	0	0	0	0	483	291	571	
14	0	0	0	0	483	293	569	
15	0	0	0	0	484	296	566	
0	0	0	0	0	484	298	524	
1	0	0	0	0	485	301	499	
2	0	0	0	0	485	304	476	
3	0	0	0	0	484	308	480	
4	0	0	0	0	483	311	477	
5	0	0	0	0	482	315	487	
6	0	0	0	0	480	318	472	
7	0	0	0	0	478	322	479	
8	0	0	0	0	475	326	477	
9	0	0	0	0	474	329	501	
10	0	0	0	0	473	333	663	
11	0	0	0	0	473	336	743	
12	0	0	0	0	472	339	583	
13	0	0	0	0	472	343	463	
14	0	0	0	0	471	345	437	
15	0	0	0	0	471	347	438	
0	0	0	0	0	470	350	444	
1	0	0	0	0	467	351	456	
2	0	0	0	0	464	353	456	
3	0	0	0	0	463	354	470	
4	0	0	0	0	465	355	475	
5	0	0	0	0	465	354	481	
6	0	0	0	0	467	354	479	
7	0	0	0	0	470	352	500	
8	0	0	0	0	472	351	500	
9	0	0	0	0	473	350	502	
10	0	0	0	0	473	348	504	
11	0	0	0	0	472	347	499	
12	0	0	0	0	470	345	505	
13	0	0	0	0	467	343	510	
14	0	0	0	0	465	342	500	
15	0	0	0	0	465	339	525	
0	0	0	0	0	465	337	520	
1	0	0	0	0	462	335	525	
2	0	0	0	0	461	332	526	
3	0	0	0	0	462	329	534	
4	0	0	0	0	463	327	543	
5	0	0	0	0	463	324	539	
6	0	0	0	0	464	320	548	
7	0	0	0	0	467	317	552	
8	0	0	0	0	470	313	551	
9	0	0	0	0	475	310	548	
10	0	0	0	0	480	307	549	
11	0	0	0	0	488	304	548	
12	0	0	0	0	497	300	532	
13	0	0	0	0	504	296	510	
14	0	0	0	0	511	293	498	
15	0	0	0	0	518	290	478	
0	0	0	0	0	522	287	466	
1	0	0	0	0	527	284	466	
2	0	0	0	0	531	281	468	
3	0	0	0	0	532	279	467	
4	0	0	0	0	533	277	478	
5	0	0	0	0	536	276	490	
6	0	0	0	0	538	274	487	
7	0	0	0	0	539	272	491	
8	0	0	0	0	542	271	488	
9	0	0	0	0	545	269	505	
10	0	0	0	0	547	267	501	
11	0	0	0	0	548	267	505	
12	0	0	0	0	549	267	512	
13	0	0	0	0	551	265	516	
14	0	0	0	0	552	264	515	
15	0	0	0	0	556	263	512	
0	0	0	0	0	559	264	514	
1	0	0	0	0	561	264	516	
2	0	0	0	0	563	264	512	
3	0	0	0	0	564	263	508	
4	0	0	0	0	563	263	511	
5	0	0	0	0	561	264	512	
6	0	0	0	0	558	265	506	
7	0	0	0	0	556	264	507	
8	0	0	0	0	553	264	505	
9	0	0	0	0	549	265	500	
10	0	0	0	0	543	264	501	
11	0	0	0	0	539	263	504	
12	0	0	0	0	536	263	501	
13	0	0	0	0	532	263	502	
14	0	0	0	0	532	262	499	
15	0	0	0	0	531	261	509	
0	0	0	0	0	531	262	506	
1	0	0	0	0	531	262	508	
2	0	0	0	0	530	260	511	
3	0	0	0	0	530	260	520	
4	0	0	0	0	530	261	509	
5	0	0	0	0	529	261	514	
6	0	0	0	0	529	262	515	
7	0	0	0	0	528	264	511	
8	0	0	0	0	529	264	508	
9	0	0	0	0	529	265	522	
10	0	0	0	0	528	267	512	
11	0	0	0	0	527	268	513	
12	0	0	0	0	526	269	515	
13	0	0	0	0	525	269	515	
14	0	0	0	0	524	270	516	
15	0	0	0	0	523	270	517	
0	0	0	0	0	520	271	515	
1	0	0	0	0	519	271	512	
2	0	0	0	0	518	272	523	
3	0	0	0	0	515	273	526	
4	0	0	0	0	513	274	518	
5	0	0	0	0	512	275	522	
6	0	0	0	0	510	275	519	
7	0	0	0	0	508	277	513	
8	0	0	0	0	507	278	508	
9	0	0	0	0	506	279	526	
10	0	0	0	0	505	279	521	
11	0	0	0	0	504	280	519	
12	0	0	0	0	505	281	511	
13	0	0	0	0	507	282	509	
14	0	0	0	0	507	283	508	
15	0	0	0	0	507	284	504	
0	0	0	0	0	505	284	502	
1	0	0	0	0	503	285	502	
2	0	0	0	0	501	285	517	
3	0	0	0	0	501	286	514	
4	0	0	0	0	499	286	510	
5	0	0	0	0	497	287	509	
6	0	0	0	0	496	287	508	
7	0	0	0	0	494	288	508	
8	0	0	0	0	493	289	520	
9	0	0	0	0	493	289	521	
10	0	0	0	0	494	290	515	
11	0	0	0	0	494	290	520	
12	0	0	0	0	493	291	516	
13	0	0	0	0	492	291	530	
14	0	0	0	0	490	291	544	
15	0	0	0	0	489	291	550	
0	0	0	0	0	489	291	562	
1	0	0	0	0	487	292	534	
2	0	0	0	0	487	292	508	
3	0	0	0	0	486	292	501	
4	0	0	0	0	485	292	489	
5	0	0	0	0	483	292	488	
6	0	0	0	0	482	292	490	
7	0	0	0	0	480	292	496	
8	0	0	0	0	479	291	488	
9	0	0	0	0	478	292	479	
10	0	0	0	0	477	291	534	
11	0	0	0	0	477	291	710	
12	0	0	0	0	476	291	736	
13	0	0	0	0	477	291	535	
14	0	0	0	0	476	291	454	
15	0	0	0	0	475	291	437	
0	0	0	0	0	473	291	452	
1	0	0	0	0	472	290	451	
2	0	0	0	0	473	289	461	
3	0	0	0	0	475	288	470	
4	0	0	0	0	477	288	468	
5	0	0	0	0	479	288	487	
6	0	0	0	0	478	287	488	
7	0	0	0	0	478	287	496	
8	0	0	0	0	478	286	495	
9	0	0	0	0	476	285	504	
10	0	0	0	0	472	285	500	
11	0	0	0	0	470	284	510	
12	0	0	0	0	467	283	510	
13	0	0	0	0	465	281	510	
14	0	0	0	0	464	279	515	
15	0	0	0	0	464	277	516	
0	0	0	0	0	465	275	514	
1	0	0	0	0	467	273	520	
2	0	0	0	0	467	271	526	
3	0	0	0	0	467	268	519	
4	0	0	0	0	467	266	530	
5	0	0	0	0	467	264	524	
6	0	0	0	0	465	261	529	
7	0	0	0	0	467	259	540	
8	0	0	0	0	470	257	540	
9	0	0	0	0	474	256	541	
10	0	0	0	0	480	253	540	
11	0	0	0	0	487	252	535	
12	0	0	0	0	495	249	531	
13	0	0	0	0	505	247	512	
14	0	0	0	0	513	245	492	
15	0	0	0	0	520	243	466	
0	0	0	0	0	527	241	459	
1	0	0	0	0	535	240	459	
2	0	0	0	0	540	238	453	
3	0	0	0	0	545	237	458	
4	0	0	0	0	549	236	458	
5	0	0	0	0	552	234	467	
6	0	0	0	0	554	233	477	
7	0	0	0	0	555	233	482	
8	0	0	0	0	552	231	492	
9	0	0	0	0	552	231	502	
10	0	0	0	0	552	230	503	
11	0	0	0	0	553	230	525	
12	0	0	0	0	555	231	525	
13	0	0	0	0	559	229	539	
14	0	0	0	0	563	230	536	
15	0	0	0	0	566	230	546	
0	0	0	0	0	568	231	550	
1	0	0	0	0	570	232	549	
2	0	0	0	0	572	233	543	
3	0	0	0	0	574	232	541	
4	0	0	0	0	574	233	543	
5	0	0	0	0	575	234	545	
6	0	0	0	0	572	234	543	
7	0	0	0	0	569	233	540	
8	0	0	0	0	566	233	539	
9	0	0	0	0	564	234	540	
10	0	0	0	0	562	233	532	
11	0	0	0	0	560	232	531	
12	0	0	0	0	558	232	531	
13	0	0	0	0	556	231	524	
14	0	0	0	0	552	232	528	
15	0	0	0	0	549	233	526	
0	0	0	0	0	547	234	519	
1	0	0	0	0	545	235	512	
2	0	0	0	0	543	236	515	
3	0	0	0	0	542	237	515	
4	0	0	0	0	542	238	510	
5	0	0	0	0	541	240	510	
6	0	0	0	0	539	242	517	
7	0	0	0	0	539	243	506	
8	0	0	0	0	538	246	506	
9	0	0	0	0	536	248	505	
10	0	0	0	0	535	251	504	
11	0	0	0	0	533	253	496	
12	0	0	0	0	531	255	504	
13	0	0	0	0	528	259	504	
14	0	0	0	0	525	262	506	
15	0	0	0	0	524	265	508	
0	0	0	0	0	521	268	500	
1	0	0	0	0	519	271	498	
2	0	0	0	0	518	275	499	
3	0	0	0	0	519	280	504	
4	0	0	0	0	519	283	504	
5	0	0	0	0	517	288	500	
6	0	0	0	0	516	292	498	
7	0	0	0	0	515	297	499	
8	0	0	0	0	512	302	496	
9	0	0	0	0	509	306	504	
10	0	0	0	0	505	311	494	
11	0	0	0	0	503	316	497	
12	0	0	0	0	501	321	500	
13	0	0	0	0	500	325	504	
14	0	0	0	0	497	329	495	
15	0	0	0	0	496	333	487	
0	0	0	0	0	495	337	493	
1	0	0	0	0	494	340	499	
2	0	0	0	0	493	344	498	
3	0	0	0	0	493	346	502	
4	0	0	0	0	496	349	509	
5	0	0	0	0	497	351	515	
6	0	0	0	0	500	354	507	
7	0	0	0	0	503	356	502	
8	0	0	0	0	506	359	502	
9	0	0	0	0	511	361	475	
10	0	0	0	0	516	364	476	
11	0	0	0	0	519	367	487	
12	0	0	0	0	523	369	496	
13	0	0	0	0	527	371	508	
14	0	0	0	0	531	373	516	
15	0	0	0	0	534	375	529	
0	0	0	0	0	536	377	548	
1	0	0	0	0	538	379	546	
2	0	0	0	0	539	380	532	
3	0	0	0	0	539	381	502	
4	0	0	0	0	539	382	486	
5	0	0	0	0	539	383	482	
6	0	0	0	0	538	383	471	
7	0	0	0	0	537	384	474	
8	0	0	0	0	535	384	487	
9	0	0	0	0	532	385	493	
10	0	0	0	0	526	384	491	
11	0	0	0	0	524	383	504	
12	0	0	0	0	520	382	640	
13	0	0	0	0	518	379	743	
14	0	0	0	0	516	377	651	
15	0	0	0	0	513	374	507	
0	0	0	0	0	512	371	479	
1	0	0	0	0	509	367	449	
2	0	0	0	0	507	364	468	
3	0	0	0	0	505	359	457	
4	0	0	0	0	505	355	469	
5	0	0	0	0	504	351	446	
6	0	0	0	0	502	347	433	
7	0	0	0	0	502	343	469	
8	0	0	0	0	500	339	468	
9	0	0	0	0	499	334	492	
10	0	0	0	0	499	329	475	
11	0	0	0	0	497	325	505	
12	0	0	0	0	495	319	566	
13	0	0	0	0	494	313	499	
14	0	0	0	0	495	307	476	
15	0	0	0	0	497	298	506	
0	0	0	0	0	498	290	519	
1	0	0	0	0	499	282	534	
2	0	0	0	0	499	273	553	
3	0	0	0	0	501	264	544	
4	0	0	0	0	500	255	550	
5	0	0	0	0	496	247	484	
6	0	0	0	0	494	237	523	
7	0	0	0	0	493	228	527	
8	0	0	0	0	489	218	520	
9	0	0	0	0	486	208	534	
10	0	0	0	0	483	199	563	
11	0	0	0	0	482	191	572	
12	0	0	0	0	481	182	572	
13	0	0	0	0	481	173	566	
14	0	0	0	0	485	164	527	
15	0	0	0	0	489	156	481	
0	0	0	0	0	494	148	473	
1	0	0	0	0	498	139	446	
2	0	0	0	0	504	129	443	
3	0	0	0	0	510	120	467	
4	0	0	0	0	513	112	466	
5	0	0	0	0	514	105	464	
6	0	0	0	0	515	98	448	
7	0	0	0	0	517	92	474	
8	0	0	0	0	519	87	453	
9	0	0	0	0	519	81	458	
10	0	0	0	0	519	76	468	
11	0	0	0	0	522	72	492	
12	0	0	0	0	526	68	499	
13	0	0	0	0	530	63	462	
14	0	0	0	0	534	58	453	
15	0	0	0	0	536	55	473	
0	0	0	0	0	540	51	486	
1	0	0	0	0	545	49	479	
2	0	0	0	0	551	48	484	
3	0	0	0	0	555	47	490	
4	0	0	0	0	557	45	482	
5	0	0	0	0	556	43	483	
6	0	0	0	0	556	41	494	
7	0	0	0	0	555	39	484	
8	0	0	0	0	553	34	480	
9	0	0	0	0	551	34	486	
10	0	0	0	0	550	33	514	
11	0	0	0	0	550	31	478	
12	0	0	0	0	550	28	485	
13	0	0	0	0	549	29	513	
14	0	0	0	0	549	30	490	
15	0	0	0	0	547	28	488	
0	0	0	0	0	547	28	507	
1	0	0	0	0	549	31	517	
2	0	0	0	0	549	30	553	
3	0	0	0	0	550	32	508	
4	0	0	0	0	552	35	494	
5	0	0	0	0	553	35	527	
6	0	0	0	0	554	39	512	
7	0	0	0	0	554	41	536	
8	0	0	0	0	555	43	529	
9	0	0	0	0	557	47	525	
10	0	0	0	0	560	50	504	
11	0	0	0	0	564	54	516	
12	0	0	0	0	573	56	530	
13	0	0	0	0	583	58	528	
14	0	0	0	0	597	62	503	
15	0	0	0	0	615	65	540	
0	0	0	0	0	637	66	525	
1	0	0	0	0	658	68	511	
2	0	0	0	0	680	70	526	
3	0	0	0	0	705	71	530	
4	0	0	0	0	731	72	526	
5	0	0	0	0	756	74	523	
6	0	0	0	0	779	76	532	
7	0	0	0	0	800	78	528	
8	0	0	0	0	819	79	539	
9	0	0	0	0	835	79	549	
10	0	0	0	0	847	81	512	
11	0	0	0	0	856	82	511	
12	0	0	0	0	864	81	532	
13	0	0	0	0	867	83	542	
14	0	0	0	0	867	83	542	
15	0	0	0	0	864	83	514	
0	0	0	0	0	862	82	534	
1	0	0	0	0	856	84	526	
2	0	0	0	0	849	84	532	
3	0	0	0	0	840	86	524	
4	0	0	0	0	831	86	517	
5	0	0	0	0	818	87	536	
6	0	0	0	0	802	90	527	
7	0	0	0	0	782	91	522	
8	0	0	0	0	760	92	508	
9	0	0	0	0	736	94	527	
10	0	0	0	0	715	94	540	
11	0	0	0	0	695	97	520	
12	0	0	0	0	677	98	536	
13	0	0	0	0	657	99	555	
14	0	0	0	0	642	99	553	
15	0	0	0	0	627	102	553	
0	0	0	0	0	614	103	567	
1	0	0	0	0	601	103	584	
2	0	0	0	0	591	104	558	
3	0	0	0	0	582	105	557	
4	0	0	0	0	573	107	521	
5	0	0	0	0	564	107	513	
6	0	0	0	0	556	110	510	
7	0	0	0	0	549	109	506	
8	0	0	0	0	542	109	505	
9	0	0	0	0	537	112	500	
10	0	0	0	0	531	112	512	
11	0	0	0	0	526	113	483	
12	0	0	0	0	522	115	572	
13	0	0	0	0	517	115	748	
14	0	0	0	0	512	116	738	
15	0	0	0	0	504	119	518	
0	0	0	0	0	497	119	481	
1	0	0	0	0	492	120	451	
2	0	0	0	0	483	121	468	
3	0	0	0	0	476	123	477	
4	0	0	0	0	471	123	475	
5	0	0	0	0	468	125	464	
6	0	0	0	0	466	127	486	
7	0	0	0	0	465	128	496	
8	0	0	0	0	466	129	501	
9	0	0	0	0	468	129	505	
10	0	0	0	0	472	130	502	
11	0	0	0	0	476	130	513	
12	0	0	0	0	479	131	506	
13	0	0	0	0	482	131	511	
14	0	0	0	0	484	131	520	
15	0	0	0	0	488	131	532	
0	0	0	0	0	491	130	535	
1	0	0	0	0	492	128	550	
2	0	0	0	0	494	129	535	
3	0	0	0	0	494	127	519	
4	0	0	0	0	494	127	547	
5	0	0	0	0	495	124	542	
6	0	0	0	0	497	124	531	
7	0	0	0	0	502	122	549	
8	0	0	0	0	507	121	554	
9	0	0	0	0	513	120	550	
10	0	0	0	0	522	118	552	
11	0	0	0	0	535	117	553	
12	0	0	0	0	547	115	563	
13	0	0	0	0	562	115	552	
14	0	0	0	0	577	112	529	
15	0	0	0	0	592	113	526	
0	0	0	0	0	606	110	501	
1	0	0	0	0	620	110	480	
2	0	0	0	0	631	108	460	
3	0	0	0	0	641	108	460	
4	0	0	0	0	647	107	464	
5	0	0	0	0	652	106	478	
6	0	0	0	0	655	105	455	
7	0	0	0	0	654	107	476	
8	0	0	0	0	652	107	477	
9	0	0	0	0	648	106	492	
10	0	0	0	0	646	108	482	
11	0	0	0	0	647	108	508	
12	0	0	0	0	649	110	485	
13	0	0	0	0	652	110	500	
14	0	0	0	0	655	114	512	
15	0	0	0	0	657	116	504	
0	0	0	0	0	662	117	492	
1	0	0	0	0	669	120	501	
2	0	0	0	0	674	122	516	
3	0	0	0	0	678	126	508	
4	0	0	0	0	679	126	505	
5	0	0	0	0	680	130	529	
6	0	0	0	0	679	132	513	
7	0	0	0	0	676	134	503	
8	0	0	0	0	672	136	512	
9	0	0	0	0	666	137	500	
10	0	0	0	0	659	139	500	
11	0	0	0	0	651	140	508	
12	0	0	0	0	643	142	513	
13	0	0	0	0	636	142	503	
14	0	0	0	0	630	144	507	
15	0	0	0	0	624	144	500	
0	0	0	0	0	621	147	499	
1	0	0	0	0	619	147	504	
2	0	0	0	0	618	149	496	
3	0	0	0	0	615	151	485	
4	0	0	0	0	615	152	500	
5	0	0	0	0	615	154	488	
6	0	0	0	0	613	156	521	
7	0	0	0	0	612	159	487	
8	0	0	0	0	609	160	484	
9	0	0	0	0	607	163	510	
10	0	0	0	0	603	167	499	
11	0	0	0	0	598	169	492	
12	0	0	0	0	593	173	496	
13	0	0	0	0	590	175	488	
14	0	0	0	0	586	179	496	
15	0	0	0	0	582	182	503	
0	0	0	0	0	579	185	501	
1	0	0	0	0	575	189	509	
2	0	0	0	0	573	191	496	
3	0	0	0	0	570	194	511	
4	0	0	0	0	568	198	509	
5	0	0	0	0	565	201	520	
6	0	0	0	0	561	204	508	
7	0	0	0	0	557	207	520	
8	0	0	0	0	554	210	516	
9	0	0	0	0	552	213	511	
10	0	0	0	0	551	215	527	
11	0	0	0	0	548	218	512	
12	0	0	0	0	545	221	521	
13	0	0	0	0	543	223	515	
14	0	0	0	0	541	225	526	
15	0	0	0	0	540	228	513	
0	0	0	0	0	539	229	506	
1	0	0	0	0	538	231	518	
2	0	0	0	0	537	234	519	
3	0	0	0	0	536	236	518	
4	0	0	0	0	533	238	508	
5	0	0	0	0	530	240	512	
6	0	0	0	0	530	242	519	
7	0	0	0	0	529	244	512	
8	0	0	0	0	527	246	509	
9	0	0	0	0	525	247	517	
10	0	0	0	0	524	250	510	
11	0	0	0	0	521	252	513	
12	0	0	0	0	518	253	526	
13	0	0	0	0	515	255	514	
14	0	0	0	0	514	257	524	
15	0	0	0	0	511	258	504	
0	0	0	0	0	508	260	521	
1	0	0	0	0	504	262	524	
2	0	0	0	0	502	263	538	
3	0	0	0	0	499	265	560	
4	0	0	0	0	497	267	551	
5	0	0	0	0	495	268	555	
6	0	0	0	0	492	269	526	
7	0	0	0	0	489	270	512	
8	0	0	0	0	486	272	492	
9	0	0	0	0	485	272	475	
10	0	0	0	0	483	273	476	
11	0	0	0	0	480	275	482	
12	0	0	0	0	475	276	486	
13	0	0	0	0	472	277	477	
14	0	0	0	0	470	278	473	
15	0	0	0	0	468	279	561	
0	0	0	0	0	466	280	724	
1	0	0	0	0	463	281	700	
2	0	0	0	0	459	283	504	
3	0	0	0	0	455	284	438	
4	0	0	0	0	451	285	447	
5	0	0	0	0	446	286	439	
6	0	0	0	0	441	286	460	
7	0	0	0	0	435	287	465	
8	0	0	0	0	430	288	471	
9	0	0	0	0	425	289	484	
10	0	0	0	0	421	289	491	
11	0	0	0	0	416	289	499	
12	0	0	0	0	412	290	498	
13	0	0	0	0	408	290	500	
14	0	0	0	0	405	290	512	
15	0	0	0	0	400	290	513	
0	0	0	0	0	396	290	515	
1	0	0	0	0	392	288	513	
2	0	0	0	0	392	287	521	
3	0	0	0	0	391	286	533	
4	0	0	0	0	391	283	524	
5	0	0	0	0	390	281	530	
6	0	0	0	0	389	280	531	
7	0	0	0	0	391	278	542	
8	0	0	0	0	392	276	534	
9	0	0	0	0	395	275	539	
10	0	0	0	0	400	275	545	
11	0	0	0	0	404	274	546	
12	0	0	0	0	411	273	537	
13	0	0	0	0	420	273	544	
14	0	0	0	0	430	273	541	
15	0	0	0	0	443	275	551	
0	0	0	0	0	456	276	533	
1	0	0	0	0	472	278	521	
2	0	0	0	0	489	279	523	
3	0	0	0	0	507	281	494	
4	0	0	0	0	523	284	464	
5	0	0	0	0	537	285	438	
6	0	0	0	0	551	288	443	
7	0	0	0	0	560	292	448	
8	0	0	0	0	569	295	454	
9	0	0	0	0	575	298	457	
10	0	0	0	0	579	302	470	
11	0	0	0	0	581	305	469	
12	0	0	0	0	580	309	480	
13	0	0	0	0	582	313	485	
14	0	0	0	0	584	317	508	
15	0	0	0	0	587	321	490	
0	0	0	0	0	591	325	487	
1	0	0	0	0	594	328	499	
2	0	0	0	0	599	332	502	
3	0	0	0	0	603	336	515	
4	0	0	0	0	607	341	520	
5	0	0	0	0	609	346	511	
6	0	0	0	0	611	351	518	
7	0	0	0	0	613	355	511	
8	0	0	0	0	614	359	519	
9	0	0	0	0	614	363	523	
10	0	0	0	0	610	367	526	
11	0	0	0	0	606	370	523	
12	0	0	0	0	600	374	527	
13	0	0	0	0	594	377	514	
14	0	0	0	0	587	380	495	
15	0	0	0	0	582	383	501	
0	0	0	0	0	575	385	503	
1	0	0	0	0	569	387	505	
2	0	0	0	0	564	390	497	
3	0	0	0	0	559	391	504	
4	0	0	0	0	554	393	521	
5	0	0	0	0	549	395	479	
6	0	0	0	0	545	397	489	
7	0	0	0	0	545	399	495	
8	0	0	0	0	545	402	487	
9	0	0	0	0	545	405	493	
10	0	0	0	0	545	408	501	
11	0	0	0	0	546	412	489	
12	0	0	0	0	543	416	495	
13	0	0	0	0	537	420	511	
14	0	0	0	0	531	425	500	
15	0	0	0	0	525	430	491	
0	0	0	0	0	518	435	505	
1	0	0	0	0	510	441	503	
2	0	0	0	0	502	447	489	
3	0	0	0	0	494	452	496	
4	0	0	0	0	486	458	498	
5	0	0	0	0	479	464	511	
6	0	0	0	0	472	470	506	
7	0	0	0	0	463	475	523	
8	0	0	0	0	459	480	525	
9	0	0	0	0	456	484	506	
10	0	0	0	0	456	489	516	
11	0	0	0	0	458	493	514	
12	0	0	0	0	458	497	525	
13	0	0	0	0	461	501	515	
14	0	0	0	0	464	505	511	
15	0	0	0	0	470	509	514	
0	0	0	0	0	476	513	506	
1	0	0	0	0	480	516	502	
2	0	0	0	0	484	520	515	
3	0	0	0	0	487	524	513	
4	0	0	0	0	489	527	507	
5	0	0	0	0	488	531	492	
6	0	0	0	0	487	535	510	
7	0	0	0	0	482	538	511	
8	0	0	0	0	476	541	520	
9	0	0	0	0	469	545	503	
10	0	0	0	0	459	548	508	
11	0	0	0	0	449	552	511	
12	0	0	0	0	440	555	525	
13	0	0	0	0	431	558	508	
14	0	0	0	0	419	561	515	
15	0	0	0	0	408	565	515	
0	0	0	0	0	400	568	503	
1	0	0	0	0	393	571	497	
2	0	0	0	0	390	574	528	
3	0	0	0	0	389	577	520	
4	0	0	0	0	388	580	543	
5	0	0	0	0	388	583	553	
6	0	0	0	0	389	586	542	
7	0	0	0	0	391	589	523	
8	0	0	0	0	393	592	494	
9	0	0	0	0	396	595	467	
10	0	0	0	0	400	597	469	
11	0	0	0	0	401	599	475	
12	0	0	0	0	403	601	468	
13	0	0	0	0	408	604	462	
14	0	0	0	0	409	605	483	
15	0	0	0	0	412	607	470	
0	0	0	0	0	411	608	529	
1	0	0	0	0	411	609	700	
2	0	0	0	0	412	610	725	
3	0	0	0	0	411	611	569	
4	0	0	0	0	409	612	465	
5	0	0	0	0	407	611	467	
6	0	0	0	0	405	611	453	
7	0	0	0	0	404	610	475	
8	0	0	0	0	402	609	480	
9	0	0	0	0	402	608	464	
10	0	0	0	0	402	606	479	
11	0	0	0	0	401	603	511	
12	0	0	0	0	401	600	509	
13	0	0	0	0	403	597	513	
14	0	0	0	0	406	592	518	
15	0	0	0	0	408	588	524	
0	0	0	0	0	410	583	497	
1	0	0	0	0	412	579	516	
2	0	0	0	0	415	573	524	
3	0	0	0	0	416	567	539	
4	0	0	0	0	417	560	530	
5	0	0	0	0	418	553	512	
6	0	0	0	0	417	547	523	
7	0	0	0	0	417	540	539	
8	0	0	0	0	419	533	539	
9	0	0	0	0	421	526	524	
10	0	0	0	0	424	518	542	
11	0	0	0	0	424	511	557	
12	0	0	0	0	427	504	527	
13	0	0	0	0	431	496	530	
14	0	0	0	0	433	488	545	
15	0	0	0	0	437	481	555	
0	0	0	0	0	443	473	553	
1	0	0	0	0	451	467	553	
2	0	0	0	0	462	460	542	
3	0	0	0	0	474	452	525	
4	0	0	0	0	488	446	509	
5	0	0	0	0	503	439	497	
6	0	0	0	0	517	432	487	
7	0	0	0	0	530	426	468	
8	0	0	0	0	542	420	454	
9	0	0	0	0	552	415	459	
10	0	0	0	0	560	409	473	
11	0	0	0	0	565	404	483	
12	0	0	0	0	568	399	482	
13	0	0	0	0	570	395	486	
14	0	0	0	0	571	390	474	
15	0	0	0	0	570	386	495	
0	0	0	0	0	571	382	500	
1	0	0	0	0	572	379	497	
2	0	0	0	0	572	375	512	
3	0	0	0	0	574	372	510	
4	0	0	0	0	577	369	512	
5	0	0	0	0	581	366	502	
6	0	0	0	0	584	364	515	
7	0	0	0	0	587	360	516	
8	0	0	0	0	588	359	509	
9	0	0	0	0	590	356	525	
10	0	0	0	0	589	353	524	
11	0	0	0	0	585	351	515	
12	0	0	0	0	580	348	510	
13	0	0	0	0	576	346	531	
14	0	0	0	0	571	343	515	
15	0	0	0	0	566	341	513	
0	0	0	0	0	562	338	521	
1	0	0	0	0	558	336	508	
2	0	0	0	0	552	332	517	
3	0	0	0	0	548	328	521	
4	0	0	0	0	544	326	518	
5	0	0	0	0	543	323	518	
6	0	0	0	0	543	320	510	
7	0	0	0	0	541	317	518	
8	0	0	0	0	540	314	516	
9	0	0	0	0	543	312	505	
10	0	0	0	0	544	309	530	
11	0	0	0	0	544	308	526	
12	0	0	0	0	544	305	517	
13	0	0	0	0	546	303	523	
14	0	0	0	0	545	302	516	
15	0	0	0	0	543	300	524	
0	0	0	0	0	538	299	526	
1	0	0	0	0	535	297	521	
2	0	0	0	0	533	296	518	
3	0	0	0	0	529	295	518	
4	0	0	0	0	526	295	517	
5	0	0	0	0	523	295	522	
6	0	0	0	0	520	295	515	
7	0	0	0	0	518	295	514	
8	0	0	0	0	516	295	516	
9	0	0	0	0	514	295	516	
10	0	0	0	0	512	295	527	
11	0	0	0	0	510	295	530	
12	0	0	0	0	508	295	536	
13	0	0	0	0	506	295	534	
14	0	0	0	0	504	295	539	
15	0	0	0	0	505	294	517	
0	0	0	0	0	503	294	514	
1	0	0	0	0	501	294	527	
2	0	0	0	0	501	295	524	
3	0	0	0	0	500	295	510	
4	0	0	0	0	498	295	519	
5	0	0	0	0	495	295	520	
6	0	0	0	0	492	295	518	
7	0	0	0	0	491	295	508	
8	0	0	0	0	489	295	510	
9	0	0	0	0	486	295	519	
10	0	0	0	0	484	296	529	
11	0	0	0	0	484	297	522	
12	0	0	0	0	481	297	527	
13	0	0	0	0	480	299	554	
14	0	0	0	0	478	299	538	
15	0	0	0	0	478	299	527	
0	0	0	0	0	476	299	499	
1	0	0	0	0	475	300	473	
2	0	0	0	0	475	300	469	
3	0	0	0	0	474	300	481	
4	0	0	0	0	472	302	485	
5	0	0	0	0	470	302	499	
6	0	0	0	0	471	302	497	
7	0	0	0	0	471	302	483	
8	0	0	0	0	472	303	545	
9	0	0	0	0	471	304	719	
10	0	0	0	0	471	304	745	
11	0	0	0	0	472	304	569	
12	0	0	0	0	471	304	462	
13	0	0	0	0	469	304	453	
14	0	0	0	0	468	304	472	
15	0	0	0	0	467	304	467	
0	0	0	0	0	466	303	450	
1	0	0	0	0	466	304	466	
2	0	0	0	0	466	304	474	
3	0	0	0	0	464	304	467	
4	0	0	0	0	463	304	482	
5	0	0	0	0	461	303	481	
6	0	0	0	0	460	302	485	
7	0	0	0	0	460	302	499	
8	0	0	0	0	458	301	488	
9	0	0	0	0	457	301	497	
10	0	0	0	0	456	300	499	
11	0	0	0	0	455	299	496	
12	0	0	0	0	454	297	503	
13	0	0	0	0	454	295	509	
14	0	0	0	0	455	295	507	
15	0	0	0	0	455	292	504	
0	0	0	0	0	454	291	519	
1	0	0	0	0	454	289	520	
2	0	0	0	0	455	287	521	
3	0	0	0	0	456	286	527	
4	0	0	0	0	456	283	534	
5	0	0	0	0	459	282	550	
6	0	0	0	0	463	280	533	
7	0	0	0	0	472	279	539	
8	0	0	0	0	480	278	548	
9	0	0	0	0	492	277	544	
10	0	0	0	0	504	275	540	
11	0	0	0	0	516	275	527	
12	0	0	0	0	527	273	507	
13	0	0	0	0	538	273	470	
14	0	0	0	0	550	271	462	
15	0	0	0	0	560	270	457	
0	0	0	0	0	567	270	447	
1	0	0	0	0	572	269	446	
2	0	0	0	0	577	268	460	
3	0	0	0	0	578	267	468	
4	0	0	0	0	579	267	464	
5	0	0	0	0	582	267	479	
6	0	0	0	0	584	268	480	
7	0	0	0	0	588	268	485	
8	0	0	0	0	593	268	499	
9	0	0	0	0	596	269	501	
10	0	0	0	0	601	270	497	
11	0	0	0	0	606	270	487	
12	0	0	0	0	611	272	494	
13	0	0	0	0	617	274	502	
14	0	0	0	0	621	277	509	
15	0	0	0	0	622	279	497	
0	0	0	0	0	624	281	504	
1	0	0	0	0	624	282	505	
2	0	0	0	0	620	283	506	
3	0	0	0	0	615	285	507	
4	0	0	0	0	612	286	514	
5	0	0	0	0	608	287	510	
6	0	0	0	0	601	288	524	
7	0	0	0	0	594	289	512	
8	0	0	0	0	586	289	508	
9	0	0	0	0	579	290	510	
10	0	0	0	0	572	291	510	
11	0	0	0	0	567	292	512	
12	0	0	0	0	566	292	507	
13	0	0	0	0	564	293	508	
14	0	0	0	0	563	294	510	
15	0	0	0	0	563	295	511	
0	0	0	0	0	562	295	510	
1	0	0	0	0	561	297	501	
2	0	0	0	0	561	299	514	
3	0	0	0	0	562	300	517	
4	0	0	0	0	561	302	499	
5	0	0	0	0	557	304	503	
6	0	0	0	0	553	307	515	
7	0	0	0	0	549	310	503	
8	0	0	0	0	545	313	514	
9	0	0	0	0	541	316	514	
10	0	0	0	0	537	319	514	
11	0	0	0	0	534	323	515	
12	0	0	0	0	531	326	521	
13	0	0	0	0	530	330	518	
14	0	0	0	0	528	332	526	
15	0	0	0	0	525	335	530	
0	0	0	0	0	523	339	508	
1	0	0	0	0	518	342	508	
2	0	0	0	0	515	344	518	
3	0	0	0	0	514	347	529	
4	0	0	0	0	512	350	512	
5	0	0	0	0	511	353	521	
6	0	0	0	0	511	356	518	
7	0	0	0	0	511	359	517	
8	0	0	0	0	511	363	508	
9	0	0	0	0	508	365	508	
10	0	0	0	0	508	367	524	
11	0	0	0	0	506	370	518	
12	0	0	0	0	504	372	524	
13	0	0	0	0	502	376	526	
14	0	0	0	0	501	378	520	
15	0	0	0	0	499	381	513	
0	0	0	0	0	500	384	532	
1	0	0	0	0	500	386	524	
2	0	0	0	0	500	389	524	
3	0	0	0	0	499	391	516	
4	0	0	0	0	498	394	515	
5	0	0	0	0	496	397	516	
6	0	0	0	0	495	400	519	
7	0	0	0	0	494	403	527	
8	0	0	0	0	490	406	519	
9	0	0	0	0	488	409	521	
10	0	0	0	0	488	412	512	
11	0	0	0	0	486	414	510	
12	0	0	0	0	485	417	513	
13	0	0	0	0	484	419	518	
14	0	0	0	0	482	422	515	
15	0	0	0	0	480	423	510	
0	0	0	0	0	480	425	513	
1	0	0	0	0	477	428	525	
2	0	0	0	0	476	429	534	
3	0	0	0	0	475	430	531	
4	0	0	0	0	476	431	539	
5	0	0	0	0	476	432	533	
6	0	0	0	0	474	433	527	
7	0	0	0	0	476	433	507	
8	0	0	0	0	475	434	499	
9	0	0	0	0	473	434	481	
10	0	0	0	0	472	435	477	
11	0	0	0	0	471	435	483	
12	0	0	0	0	469	435	482	
13	0	0	0	0	467	435	489	
14	0	0	0	0	465	436	483	
15	0	0	0	0	464	436	489	
0	0	0	0	0	463	437	487	
1	0	0	0	0	462	437	577	
2	0	0	0	0	460	437	737	
3	0	0	0	0	459	438	725	
4	0	0	0	0	454	438	514	
5	0	0	0	0	449	438	452	
6	0	0	0	0	449	438	468	
7	0	0	0	0	448	437	467	
8	0	0	0	0	447	436	480	
9	0	0	0	0	449	435	477	
10	0	0	0	0	452	434	476	
11	0	0	0	0	454	433	482	
12	0	0	0	0	456	432	490	
13	0	0	0	0	458	431	492	
14	0	0	0	0	458	430	493	
15	0	0	0	0	458	428	502	
0	0	0	0	0	457	426	503	
1	0	0	0	0	455	424	519	
2	0	0	0	0	455	422	512	
3	0	0	0	0	454	420	510	
4	0	0	0	0	454	417	511	
5	0	0	0	0	454	414	511	
6	0	0	0	0	454	411	515	
7	0	0	0	0	453	408	504	
8	0	0	0	0	451	404	519	
9	0	0	0	0	449	400	518	
10	0	0	0	0	449	397	517	
11	0	0	0	0	451	393	523	
12	0	0	0	0	454	390	525	
13	0	0	0	0	455	386	535	
14	0	0	0	0	460	382	537	
15	0	0	0	0	468	379	523	
0	0	0	0	0	478	375	530	
1	0	0	0	0	489	371	536	
2	0	0	0	0	500	368	518	
3	0	0	0	0	513	366	519	
4	0	0	0	0	526	363	509	
5	0	0	0	0	539	360	489	
6	0	0	0	0	551	358	476	
7	0	0	0	0	562	356	452	
8	0	0	0	0	570	355	443	
9	0	0	0	0	575	353	441	
10	0	0	0	0	579	352	454	
11	0	0	0	0	581	352	460	
12	0	0	0	0	582	352	462	
13	0	0	0	0	582	352	474	
14	0	0	0	0	583	352	472	
15	0	0	0	0	584	354	470	
0	0	0	0	0	584	355	484	
1	0	0	0	0	584	356	486	
2	0	0	0	0	587	359	492	
3	0	0	0	0	593	361	502	
4	0	0	0	0	598	364	504	
5	0	0	0	0	603	367	500	
6	0	0	0	0	609	369	523	
7	0	0	0	0	615	372	519	
8	0	0	0	0	618	375	509	
9	0	0	0	0	621	379	523	
10	0	0	0	0	622	382	540	
11	0	0	0	0	624	384	526	
12	0	0	0	0	621	388	535	
13	0	0	0	0	615	390	541	
14	0	0	0	0	609	394	534	
15	0	0	0	0	604	396	532	
0	0	0	0	0	595	399	523	
1	0	0	0	0	587	403	512	
2	0	0	0	0	580	406	524	
3	0	0	0	0	576	409	507	
4	0	0	0	0	569	412	523	
5	0	0	0	0	564	415	529	
6	0	0	0	0	559	419	519	
7	0	0	0	0	555	422	517	
8	0	0	0	0	551	426	511	
9	0	0	0	0	550	429	516	
10	0	0	0	0	552	434	521	
11	0	0	0	0	552	438	515	
12	0	0	0	0	552	443	511	
13	0	0	0	0	552	448	511	
14	0	0	0	0	553	452	505	
15	0	0	0	0	552	457	503	
0	0	0	0	0	549	463	502	
1	0	0	0	0	548	468	505	
2	0	0	0	0	547	473	511	
3	0	0	0	0	545	479	502	
4	0	0	0	0	541	485	485	
5	0	0	0	0	536	490	489	
6	0	0	0	0	533	495	483	
7	0	0	0	0	530	500	481	
8	0	0	0	0	526	505	480	
9	0	0	0	0	523	510	474	
10	0	0	0	0	520	514	475	
11	0	0	0	0	519	518	492	
12	0	0	0	0	516	521	487	
13	0	0	0	0	513	525	482	
14	0	0	0	0	512	528	476	
15	0	0	0	0	511	531	482	
0	0	0	0	0	509	533	496	
1	0	0	0	0	509	536	496	
2	0	0	0	0	510	537	491	
3	0	0	0	0	510	540	496	
4	0	0	0	0	509	541	507	
5	0	0	0	0	508	543	492	
6	0	0	0	0	508	544	505	
7	0	0	0	0	507	545	526	
8	0	0	0	0	505	546	523	
9	0	0	0	0	505	547	515	
10	0	0	0	0	505	547	515	
11	0	0	0	0	504	548	529	
12	0	0	0	0	503	548	518	
13	0	0	0	0	502	547	531	
14	0	0	0	0	502	546	525	
15	0	0	0	0	503	545	540	
0	0	0	0	0	504	543	542	
1	0	0	0	0	504	540	531	
2	0	0	0	0	504	535	544	
3	0	0	0	0	504	529	527	
4	0	0	0	0	504	523	523	
5	0	0	0	0	502	515	516	
6	0	0	0	0	500	507	498	
7	0	0	0	0	499	498	499	
8	0	0	0	0	496	488	504	
9	0	0	0	0	494	479	509	
10	0	0	0	0	494	470	514	
11	0	0	0	0	492	460	522	
12	0	0	0	0	489	450	510	
13	0	0	0	0	487	440	569	
14	0	0	0	0	486	432	741	
15	0	0	0	0	485	423	761	
0	0	0	0	0	482	415	616	
1	0	0	0	0	480	407	514	
2	0	0	0	0	478	399	495	
3	0	0	0	0	477	392	476	
4	0	0	0	0	474	385	473	
5	0	0	0	0	471	377	482	
6	0	0	0	0	469	371	493	
7	0	0	0	0	468	364	489	
8	0	0	0	0	467	359	478	
9	0	0	0	0	466	352	493	
10	0	0	0	0	465	346	491	
11	0	0	0	0	465	339	499	
12	0	0	0	0	464	332	487	
13	0	0	0	0	464	326	501	
14	0	0	0	0	465	320	507	
15	0	0	0	0	466	313	495	
0	0	0	0	0	464	307	514	
1	0	0	0	0	464	300	515	
2	0	0	0	0	464	293	514	
3	0	0	0	0	462	287	524	
4	0	0	0	0	460	280	533	
5	0	0	0	0	459	273	524	
6	0	0	0	0	455	267	531	
7	0	0	0	0	454	260	531	
8	0	0	0	0	452	254	537	
9	0	0	0	0	452	247	522	
10	0	0	0	0	455	242	552	
11	0	0	0	0	458	235	539	
12	0	0	0	0	464	229	530	
13	0	0	0	0	471	224	528	
14	0	0	0	0	480	218	530	
15	0	0	0	0	492	213	519	
0	0	0	0	0	505	207	504	
1	0	0	0	0	519	203	489	
2	0	0	0	0	532	198	465	
3	0	0	0	0	545	194	428	
4	0	0	0	0	556	189	437	
5	0	0	0	0	566	184	430	
6	0	0	0	0	572	181	431	
7	0	0	0	0	578	176	438	
8	0	0	0	0	582	172	444	
9	0	0	0	0	584	167	449	
10	0	0	0	0	584	165	454	
11	0	0	0	0	586	160	467	
12	0	0	0	0	587	157	455	
13	0	0	0	0	588	152	460	
14	0	0	0	0	592	147	455	
15	0	0	0	0	598	144	460	
0	0	0	0	0	603	140	470	
1	0	0	0	0	607	135	468	
2	0	0	0	0	612	131	478	
3	0	0	0	0	618	127	474	
4	0	0	0	0	622	123	478	
5	0	0	0	0	624	119	479	
6	0	0	0	0	627	115	484	
7	0	0	0	0	627	111	472	
8	0	0	0	0	623	107	487	
9	0	0	0	0	619	102	488	
10	0	0	0	0	615	97	502	
11	0	0	0	0	609	94	478	
12	0	0	0	0	600	90	502	
13	0	0	0	0	591	86	502	
14	0	0	0	0	584	81	485	
15	0	0	0	0	578	79	492	
0	0	0	0	0	573	77	508	
1	0	0	0	0	568	73	507	
2	0	0	0	0	566	70	485	
3	0	0	0	0	564	69	491	
4	0	0	0	0	563	67	491	
5	0	0	0	0	563	67	513	
6	0	0	0	0	561	65	498	
7	0	0	0	0	561	66	494	
8	0	0	0	0	560	65	513	
9	0	0	0	0	558	63	511	
10	0	0	0	0	558	66	513	
11	0	0	0	0	556	67	504	
12	0	0	0	0	553	67	516	
13	0	0	0	0	550	68	512	
14	0	0	0	0	546	71	505	
15	0	0	0	0	542	73	498	
0	0	0	0	0	539	75	512	
1	0	0	0	0	534	78	517	
2	0	0	0	0	531	81	520	
3	0	0	0	0	530	84	506	
4	0	0	0	0	528	85	512	
5	0	0	0	0	524	89	519	
6	0	0	0	0	521	92	515	
7	0	0	0	0	517	93	516	
8	0	0	0	0	513	97	508	
9	0	0	0	0	511	100	526	
10	0	0	0	0	508	102	515	
11	0	0	0	0	509	103	512	
12	0	0	0	0	507	105	524	
13	0	0	0	0	504	107	524	
14	0	0	0	0	502	108	535	
15	0	0	0	0	502	109	516	
0	0	0	0	0	500	108	523	
1	0	0	0	0	499	111	526	
2	0	0	0	0	499	112	510	
3	0	0	0	0	499	113	527	
4	0	0	0	0	496	115	541	
5	0	0	0	0	493	116	524	
6	0	0	0	0	492	116	533	
7	0	0	0	0	490	119	546	
8	0	0	0	0	487	122	539	
9	0	0	0	0	486	125	527	
10	0	0	0	0	483	128	513	
11	0	0	0	0	480	132	500	
12	0	0	0	0	478	135	494	
13	0	0	0	0	476	139	494	
14	0	0	0	0	473	142	487	
15	0	0	0	0	471	145	492	
0	0	0	0	0	470	150	507	
1	0	0	0	0	470	155	497	
2	0	0	0	0	469	159	497	
3	0	0	0	0	470	165	568	
4	0	0	0	0	469	171	730	
5	0	0	0	0	466	176	741	
6	0	0	0	0	465	181	542	
7	0	0	0	0	464	185	468	
8	0	0	0	0	463	189	459	
9	0	0	0	0	463	194	455	
10	0	0	0	0	463	198	471	
11	0	0	0	0	463	201	483	
12	0	0	0	0	463	204	476	
13	0	0	0	0	464	207	492	
14	0	0	0	0	462	209	498	
15	0	0	0	0	461	212	497	
0	0	0	0	0	460	214	505	
1	0	0	0	0	458	215	502	
2	0	0	0	0	456	216	523	
3	0	0	0	0	456	217	510	
4	0	0	0	0	455	218	514	
5	0	0	0	0	454	219	527	
6	0	0	0	0	453	220	527	
7	0	0	0	0	453	220	516	
8	0	0	0	0	451	220	531	
9	0	0	0	0	451	221	537	
10	0	0	0	0	452	220	528	
11	0	0	0	0	453	220	537	
12	0	0	0	0	452	220	542	
13	0	0	0	0	451	220	534	
14	0	0	0	0	450	219	535	
15	0	0	0	0	451	218	542	
0	0	0	0	0	454	217	553	
1	0	0	0	0	460	216	549	
2	0	0	0	0	466	215	550	
3	0	0	0	0	476	215	558	
4	0	0	0	0	487	215	551	
5	0	0	0	0	499	214	541	
6	0	0	0	0	512	214	525	
7	0	0	0	0	523	213	509	
8	0	0	0	0	536	214	483	
9	0	0	0	0	549	214	459	
10	0	0	0	0	559	214	453	
11	0	0	0	0	568	216	454	
12	0	0	0	0	573	216	466	
13	0	0	0	0	577	217	462	
14	0	0	0	0	582	219	480	
15	0	0	0	0	585	222	487	
0	0	0	0	0	586	223	490	
1	0	0	0	0	586	225	497	
2	0	0	0	0	588	227	511	
3	0	0	0	0	593	228	508	
4	0	0	0	0	597	231	522	
5	0	0	0	0	601	233	507	
6	0	0	0	0	607	235	523	
7	0	0	0	0	612	237	515	
8	0	0	0	0	617	240	533	
9	0	0	0	0	620	243	532	
10	0	0	0	0	622	247	531	
11	0	0	0	0	623	248	525	
12	0	0	0	0	623	251	540	
13	0	0	0	0	619	254	538	
14	0	0	0	0	616	257	532	
15	0	0	0	0	611	259	531	
0	0	0	0	0	605	261	535	
1	0	0	0	0	598	263	531	
2	0	0	0	0	592	265	538	
3	0	0	0	0	584	267	512	
4	0	0	0	0	576	268	518	
5	0	0	0	0	568	270	520	
6	0	0	0	0	561	272	508	
7	0	0	0	0	556	274	508	
8	0	0	0	0	552	276	512	
9	0	0	0	0	551	278	512	
10	0	0	0	0	549	279	518	
11	0	0	0	0	548	282	513	
12	0	0	0	0	546	284	511	
13	0	0	0	0	545	285	511	
14	0	0	0	0	543	288	513	
15	0	0	0	0	542	290	506	
0	0	0	0	0	541	292	513	
1	0	0	0	0	542	295	516	
2	0	0	0	0	542	298	521	
3	0	0	0	0	538	301	500	
4	0	0	0	0	536	304	511	
5	0	0	0	0	532	307	512	
6	0	0	0	0	527	312	513	
7	0	0	0	0	520	315	518	
8	0	0	0	0	516	318	512	
9	0	0	0	0	512	322	522	
10	0	0	0	0	507	326	521	
11	0	0	0	0	504	329	522	
12	0	0	0	0	502	333	516	
13	0	0	0	0	499	336	515	
14	0	0	0	0	499	339	511	
15	0	0	0	0	498	342	510	
0	0	0	0	0	495	344	513	
1	0	0	0	0	494	347	505	
2	0	0	0	0	493	350	515	
3	0	0	0	0	492	352	507	
4	0	0	0	0	492	355	516	
5	0	0	0	0	489	358	512	
6	0	0	0	0	487	361	502	
7	0	0	0	0	486	363	510	
8	0	0	0	0	483	365	527	
9	0	0	0	0	481	367	520	
10	0	0	0	0	480	368	501	
11	0	0	0	0	479	369	519	
12	0	0	0	0	478	370	515	
13	0	0	0	0	476	371	528	
14	0	0	0	0	475	371	510	
15	0	0	0	0	474	372	504	
0	0	0	0	0	472	371	516	
1	0	0	0	0	472	371	532	
2	0	0	0	0	472	371	517	
3	0	0	0	0	472	371	510	
4	0	0	0	0	474	370	518	
5	0	0	0	0	475	369	516	
6	0	0	0	0	475	368	512	
7	0	0	0	0	477	368	511	
8	0	0	0	0	478	367	493	
9	0	0	0	0	476	366	512	
10	0	0	0	0	474	364	517	
11	0	0	0	0	474	364	510	
12	0	0	0	0	472	362	523	
13	0	0	0	0	470	361	534	
14	0	0	0	0	469	359	528	
15	0	0	0	0	467	358	506	
0	0	0	0	0	465	357	475	
1	0	0	0	0	462	355	475	
2	0	0	0	0	460	354	472	
3	0	0	0	0	458	353	462	
4	0	0	0	0	456	352	473	
5	0	0	0	0	455	350	476	
6	0	0	0	0	455	349	485	
7	0	0	0	0	455	348	476	
8	0	0	0	0	453	346	480	
9	0	0	0	0	452	345	583	
10	0	0	0	0	450	344	731	
11	0	0	0	0	451	343	679	
12	0	0	0	0	448	342	502	
13	0	0	0	0	446	341	448	
14	0	0	0	0	445	340	429	
15	0	0	0	0	444	338	450	
0	0	0	0	0	443	336	468	
1	0	0	0	0	441	335	473	
2	0	0	0	0	440	333	471	
3	0	0	0	0	441	331	481	
4	0	0	0	0	440	329	475	
5	0	0	0	0	441	327	499	
6	0	0	0	0	442	324	504	
7	0	0	0	0	444	321	513	
8	0	0	0	0	445	319	486	
9	0	0	0	0	446	316	500	
10	0	0	0	0	444	312	515	
11	0	0	0	0	444	310	531	
12	0	0	0	0	442	306	500	
13	0	0	0	0	440	302	511	
14	0	0	0	0	439	299	534	
15	0	0	0	0	438	294	520	
0	0	0	0	0	436	290	526	
1	0	0	0	0	433	286	516	
2	0	0	0	0	431	281	527	
3	0	0	0	0	430	277	536	
4	0	0	0	0	428	273	542	
5	0	0	0	0	429	267	534	
6	0	0	0	0	434	263	543	
7	0	0	0	0	441	259	543	
8	0	0	0	0	450	255	553	
9	0	0	0	0	460	250	546	
10	0	0	0	0	472	247	531	
11	0	0	0	0	486	242	533	
12	0	0	0	0	501	239	507	
13	0	0	0	0	513	236	500	
14	0	0	0	0	525	233	468	
15	0	0	0	0	536	231	447	
0	0	0	0	0	545	228	432	
1	0	0	0	0	549	227	422	
2	0	0	0	0	553	227	432	
3	0	0	0	0	556	225	435	
4	0	0	0	0	557	224	445	
5	0	0	0	0	556	225	452	
6	0	0	0	0	555	226	471	
7	0	0	0	0	555	226	454	
8	0	0	0	0	555	228	456	
9	0	0	0	0	556	227	473	
10	0	0	0	0	560	230	487	
11	0	0	0	0	565	231	470	
12	0	0	0	0	569	232	469	
13	0	0	0	0	572	233	480	
14	0	0	0	0	577	232	471	
15	0	0	0	0	580	232	498	
0	0	0	0	0	583	231	494	
1	0	0	0	0	586	230	507	
2	0	0	0	0	588	228	504	
3	0	0	0	0	587	225	484	
4	0	0	0	0	584	223	494	
5	0	0	0	0	579	220	494	
6	0	0	0	0	573	216	496	
7	0	0	0	0	565	213	491	
8	0	0	0	0	560	211	519	
9	0	0	0	0	555	208	513	
10	0	0	0	0	549	205	497	
11	0	0	0	0	544	201	466	
12	0	0	0	0	540	198	480	
13	0	0	0	0	536	194	485	
14	0	0	0	0	533	191	497	
15	0	0	0	0	531	188	502	
0	0	0	0	0	530	186	482	
1	0	0	0	0	529	183	497	
2	0	0	0	0	529	179	519	
3	0	0	0	0	529	175	459	
4	0	0	0	0	528	171	488	
5	0	0	0	0	526	167	503	
6	0	0	0	0	525	162	502	
7	0	0	0	0	524	160	529	
8	0	0	0	0	523	158	515	
9	0	0	0	0	521	156	508	
10	0	0	0	0	519	155	505	
11	0	0	0	0	516	154	520	
12	0	0	0	0	512	153	516	
13	0	0	0	0	509	154	500	
14	0	0	0	0	505	153	530	
15	0	0	0	0	501	153	516	
0	0	0	0	0	498	153	533	
1	0	0	0	0	496	155	514	
2	0	0	0	0	493	158	510	
3	0	0	0	0	490	160	522	
4	0	0	0	0	488	163	514	
5	0	0	0	0	486	165	506	
6	0	0	0	0	484	168	512	
7	0	0	0	0	483	171	518	
8	0	0	0	0	482	175	517	
9	0	0	0	0	480	176	513	
10	0	0	0	0	478	179	509	
11	0	0	0	0	478	181	513	
12	0	0	0	0	480	183	512	
13	0	0	0	0	480	185	496	
14	0	0	0	0	479	185	504	
15	0	0	0	0	479	188	509	
0	0	0	0	0	476	190	513	
1	0	0	0	0	474	191	519	
2	0	0	0	0	472	193	512	
3	0	0	0	0	471	194	531	
4	0	0	0	0	471	196	512	
5	0	0	0	0	470	196	523	
6	0	0	0	0	469	196	479	
7	0	0	0	0	470	196	453	
8	0	0	0	0	469	195	471	
9	0	0	0	0	467	193	465	
10	0	0	0	0	465	191	479	
11	0	0	0	0	464	188	477	
12	0	0	0	0	463	184	485	
13	0	0	0	0	463	180	472	
14	0	0	0	0	461	174	483	
15	0	0	0	0	461	169	587	
0	0	0	0	0	461	163	730	
1	0	0	0	0	460	158	708	
2	0	0	0	0	460	153	556	
3	0	0	0	0	460	147	463	
4	0	0	0	0	459	141	457	
5	0	0	0	0	459	136	470	
6	0	0	0	0	459	131	443	
7	0	0	0	0	460	127	468	
8	0	0	0	0	458	124	469	
9	0	0	0	0	458	120	468	
10	0	0	0	0	457	117	494	
11	0	0	0	0	456	114	484	
12	0	0	0	0	456	111	477	
13	0	0	0	0	457	106	492	
14	0	0	0	0	458	102	499	
15	0	0	0	0	459	99	511	
0	0	0	0	0	458	95	508	
1	0	0	0	0	457	91	508	
2	0	0	0	0	455	88	532	
3	0	0	0	0	454	83	515	
4	0	0	0	0	454	78	507	
5	0	0	0	0	453	73	532	
6	0	0	0	0	452	69	532	
7	0	0	0	0	451	64	549	
8	0	0	0	0	449	61	535	
9	0	0	0	0	448	56	547	
10	0	0	0	0	448	52	536	
11	0	0	0	0	449	48	535	
12	0	0	0	0	450	46	544	
13	0	0	0	0	451	42	555	
14	0	0	0	0	456	40	558	
15	0	0	0	0	464	38	550	
0	0	0	0	0	473	35	564	
1	0	0	0	0	481	32	559	
2	0	0	0	0	491	31	541	
3	0	0	0	0	503	28	488	
4	0	0	0	0	514	27	482	
5	0	0	0	0	524	25	467	
6	0	0	0	0	533	23	466	
7	0	0	0	0	543	22	465	
8	0	0	0	0	552	22	485	
9	0	0	0	0	558	22	476	
10	0	0	0	0	564	22	462	
11	0	0	0	0	567	21	487	
12	0	0	0	0	568	20	501	
13	0	0	0	0	570	21	493	
14	0	0	0	0	570	23	518	
15	0	0	0	0	572	23	513	
0	0	0	0	0	572	24	527	
1	0	0	0	0	574	24	506	
2	0	0	0	0	575	25	518	
3	0	0	0	0	576	25	536	
4	0	0	0	0	579	25	530	
5	0	0	0	0	583	28	553	
6	0	0	0	0	583	30	529	
7	0	0	0	0	583	31	522	
8	0	0	0	0	582	35	535	
9	0	0	0	0	580	36	554	
10	0	0	0	0	577	38	524	
11	0	0	0	0	575	38	545	
12	0	0	0	0	570	41	539	
13	0	0	0	0	565	43	544	
14	0	0	0	0	559	43	548	
15	0	0	0	0	554	42	527	
0	0	0	0	0	549	43	523	
1	0	0	0	0	545	43	534	
2	0	0	0	0	543	46	519	
3	0	0	0	0	540	46	514	
4	0	0	0	0	536	46	531	
5	0	0	0	0	531	47	508	
6	0	0	0	0	529	47	518	
7	0	0	0	0	527	48	517	
8	0	0	0	0	525	51	514	
9	0	0	0	0	523	53	503	
10	0	0	0	0	521	55	504	
11	0	0	0	0	522	55	523	
12	0	0	0	0	521	58	512	
13	0	0	0	0	519	62	511	
14	0	0	0	0	517	63	517	
15	0	0	0	0	515	67	518	
0	0	0	0	0	512	70	515	
1	0	0	0	0	507	72	524	
2	0	0	0	0	504	77	502	
3	0	0	0	0	502	80	514	
4	0	0	0	0	499	83	508	
5	0	0	0	0	499	89	527	
6	0	0	0	0	498	92	525	
7	0	0	0	0	497	95	517	
8	0	0	0	0	496	100	505	
9	0	0	0	0	494	105	527	
10	0	0	0	0	494	108	527	
11	0	0	0	0	492	113	536	
12	0	0	0	0	492	115	506	
13	0	0	0	0	492	119	518	
14	0	0	0	0	493	122	526	
15	0	0	0	0	494	124	526	
0	0	0	0	0	493	128	527	
1	0	0	0	0	493	131	535	
2	0	0	0	0	494	134	536	
3	0	0	0	0	491	138	529	
4	0	0	0	0	489	140	540	
5	0	0	0	0	487	144	562	
6	0	0	0	0	485	147	543	
7	0	0	0	0	482	152	572	
8	0	0	0	0	481	155	584	
9	0	0	0	0	480	159	556	
10	0	0	0	0	477	162	531	
11	0	0	0	0	474	163	526	
12	0	0	0	0	474	167	515	
13	0	0	0	0	473	171	504	
14	0	0	0	0	472	175	505	
15	0	0	0	0	469	180	509	
0	0	0	0	0	467	184	516	
1	0	0	0	0	465	191	507	
2	0	0	0	0	464	196	510	
3	0	0	0	0	463	201	496	
4	0	0	0	0	462	205	638	
5	0	0	0	0	460	210	750	
6	0	0	0	0	459	214	709	
7	0	0	0	0	460	218	543	
8	0	0	0	0	460	221	474	
9	0	0	0	0	461	224	455	
10	0	0	0	0	463	226	469	
11	0	0	0	0	464	229	477	
12	0	0	0	0	466	231	484	
13	0	0	0	0	465	232	486	
14	0	0	0	0	466	234	496	
15	0	0	0	0	467	236	503	
0	0	0	0	0	469	237	502	
1	0	0	0	0	472	238	507	
2	0	0	0	0	473	239	507	
3	0	0	0	0	475	240	517	
4	0	0	0	0	475	241	510	
5	0	0	0	0	483	243	508	
6	0	0	0	0	529	244	524	
7	0	0	0	0	681	245	528	
8	0	0	0	0	974	246	516	
9	0	0	0	0	974	245	498	
10	0	0	0	0	974	248	518	
11	0	0	0	0	974	248	545	
12	0	0	0	0	974	251	526	
13	0	0	0	0	975	253	510	
14	0	0	0	0	975	257	527	
15	0	0	0	0	975	261	530	
0	0	0	0	0	975	263	554	
1	0	0	0	0	975	267	525	
2	0	0	0	0	974	270	543	
3	0	0	0	0	975	271	540	
4	0	0	0	0	974	274	562	
5	0	0	0	0	974	278	564	
6	0	0	0	0	974	280	534	
7	0	0	0	0	974	285	487	
8	0	0	0	0	974	289	466	
9	0	0	0	0	974	296	459	
10	0	0	0	0	974	301	450	
11	0	0	0	0	974	307	448	
12	0	0	0	0	974	311	451	
13	0	0	0	0	974	316	468	
14	0	0	0	0	974	321	449	
15	0	0	0	0	974	326	460	
0	0	0	0	0	974	332	480	
1	0	0	0	0	974	335	475	
2	0	0	0	0	974	340	480	
3	0	0	0	0	974	344	477	
4	0	0	0	0	974	349	478	
5	0	0	0	0	974	353	482	
6	0	0	0	0	974	359	498	
7	0	0	0	0	974	365	487	
8	0	0	0	0	974	371	505	
9	0	0	0	0	974	377	513	
10	0	0	0	0	974	384	539	
11	0	0	0	0	974	389	509	
12	0	0	0	0	974	395	519	
13	0	0	0	0	974	399	505	
14	0	0	0	0	974	403	520	
15	0	0	0	0	974	407	527	
0	0	0	0	0	974	411	513	
1	0	0	0	0	974	415	522	
2	0	0	0	0	974	418	520	
3	0	0	0	0	974	423	521	
4	0	0	0	0	974	425	496	
5	0	0	0	0	974	429	515	
6	0	0	0	0	974	432	519	
7	0	0	0	0	974	436	486	
8	0	0	0	0	974	441	507	
9	0	0	0	0	974	446	547	
10	0	0	0	0	974	450	449	
11	0	0	0	0	974	455	476	
12	0	0	0	0	974	461	490	
13	0	0	0	0	974	465	589	
14	0	0	0	0	974	469	496	
15	0	0	0	0	974	474	496	
0	0	0	0	0	974	478	505	
1	0	0	0	0	974	483	601	
2	0	0	0	0	974	487	415	
3	0	0	0	0	974	491	464	
4	0	0	0	0	974	496	478	
5	0	0	0	0	974	500	537	
6	0	0	0	0	974	505	525	
7	0	0	0	0	974	511	490	
8	0	0	0	0	974	516	518	
9	0	0	0	0	974	520	533	
10	0	0	0	0	974	525	540	
11	0	0	0	0	974	531	527	
12	0	0	0	0	974	535	536	
13	0	0	0	0	973	540	486	
14	0	0	0	0	896	546	529	
15	0	0	0	0	827	551	519	
0	0	0	0	0	765	554	534	
1	0	0	0	0	713	559	523	
2	0	0	0	0	670	562	569	
3	0	0	0	0	635	566	543	
4	0	0	0	0	610	569	559	
5	0	0	0	0	591	572	521	
6	0	0	0	0	577	573	539	
7	0	0	0	0	567	574	546	
8	0	0	0	0	560	575	566	
9	0	0	0	0	553	574	534	
10	0	0	0	0	549	573	520	
11	0	0	0	0	544	571	554	
12	0	0	0	0	537	568	565	
13	0	0	0	0	528	565	555	
14	0	0	0	0	520	562	543	
15	0	0	0	0	510	559	514	
0	0	0	0	0	499	555	544	
1	0	0	0	0	486	551	537	
2	0	0	0	0	473	547	520	
3	0	0	0	0	458	543	531	
4	0	0	0	0	442	540	541	
5	0	0	0	0	425	535	561	
6	0	0	0	0	408	531	520	
7	0	0	0	0	392	527	489	
8	0	0	0	0	377	523	519	
9	0	0	0	0	364	519	537	
10	0	0	0	0	353	515	543	
11	0	0	0	0	341	511	520	
12	0	0	0	0	333	507	537	
13	0	0	0	0	327	503	533	
14	0	0	0	0	322	499	540	
15	0	0	0	0	320	496	503	
0	0	0	0	0	321	494	486	
1	0	0	0	0	324	492	448	
2	0	0	0	0	329	490	464	
3	0	0	0	0	333	488	478	
4	0	0	0	0	339	487	511	
5	0	0	0	0	344	486	484	
6	0	0	0	0	348	485	473	
7	0	0	0	0	350	484	484	
8	0	0	0	0	348	483	540	
9	0	0	0	0	342	483	706	
10	0	0	0	0	334	483	723	
11	0	0	0	0	329	483	527	
12	0	0	0	0	327	482	457	
13	0	0	0	0	328	482	449	
14	0	0	0	0	333	480	454	
15	0	0	0	0	344	479	440	
0	0	0	0	0	361	478	466	
1	0	0	0	0	385	477	507	
2	0	0	0	0	411	476	473	
3	0	0	0	0	441	475	463	
4	0	0	0	0	469	474	484	
5	0	0	0	0	495	473	482	
6	0	0	0	0	519	472	545	
7	0	0	0	0	540	471	480	
8	0	0	0	0	556	470	507	
9	0	0	0	0	567	469	511	
10	0	0	0	0	576	467	472	
11	0	0	0	0	580	465	498	
12	0	0	0	0	579	464	531	
13	0	0	0	0	577	462	532	
14	0	0	0	0	574	460	525	
15	0	0	0	0	568	459	499	
0	0	0	0	0	560	458	482	
1	0	0	0	0	550	457	496	
2	0	0	0	0	540	456	527	
3	0	0	0	0	532	456	532	
4	0	0	0	0	524	455	547	
5	0	0	0	0	519	454	536	
6	0	0	0	0	517	452	538	
7	0	0	0	0	518	450	516	
8	0	0	0	0	523	448	528	
9	0	0	0	0	529	445	540	
10	0	0	0	0	538	443	526	
11	0	0	0	0	547	440	483	
12	0	0	0	0	557	437	481	
13	0	0	0	0	566	435	495	
14	0	0	0	0	575	432	455	
15	0	0	0	0	581	431	435	
0	0	0	0	0	587	430	434	
1	0	0	0	0	591	429	456	
2	0	0	0	0	593	429	424	
3	0	0	0	0	594	430	439	
4	0	0	0	0	594	430	451	
5	0	0	0	0	594	431	461	
6	0	0	0	0	595	432	487	
7	0	0	0	0	594	433	487	
8	0	0	0	0	594	434	481	
9	0	0	0	0	596	437	501	
10	0	0	0	0	596	439	508	
11	0	0	0	0	595	441	510	
12	0	0	0	0	597	443	534	
13	0	0	0	0	598	444	486	
14	0	0	0	0	598	445	490	
15	0	0	0	0	594	446	482	
0	0	0	0	0	585	446	514	
1	0	0	0	0	574	445	531	
2	0	0	0	0	560	444	513	
3	0	0	0	0	544	442	489	
4	0	0	0	0	528	439	496	
5	0	0	0	0	512	435	505	
6	0	0	0	0	497	431	507	
7	0	0	0	0	484	428	485	
8	0	0	0	0	472	423	500	
9	0	0	0	0	465	420	506	
10	0	0	0	0	460	416	501	
11	0	0	0	0	457	412	496	
12	0	0	0	0	456	409	502	
13	0	0	0	0	457	406	494	
14	0	0	0	0	458	404	487	
15	0	0	0	0	462	402	494	
0	0	0	0	0	467	400	507	
1	0	0	0	0	474	398	504	
2	0	0	0	0	482	397	502	
3	0	0	0	0	489	395	495	
4	0	0	0	0	495	394	474	
5	0	0	0	0	499	393	505	
6	0	0	0	0	502	392	493	
7	0	0	0	0	501	391	486	
8	0	0	0	0	500	390	521	
9	0	0	0	0	501	390	495	
10	0	0	0	0	502	390	515	
11	0	0	0	0	502	390	494	
12	0	0	0	0	500	391	499	
13	0	0	0	0	497	391	484	
14	0	0	0	0	494	392	505	
15	0	0	0	0	489	393	495	
0	0	0	0	0	484	395	508	
1	0	0	0	0	480	397	512	
2	0	0	0	0	475	398	499	
3	0	0	0	0	472	400	492	
4	0	0	0	0	468	402	510	
5	0	0	0	0	464	403	487	
6	0	0	0	0	462	405	496	
7	0	0	0	0	458	406	529	
8	0	0	0	0	455	406	528	
9	0	0	0	0	453	407	471	
10	0	0	0	0	449	408	497	
11	0	0	0	0	442	408	496	
12	0	0	0	0	433	409	496	
13	0	0	0	0	426	409	495	
14	0	0	0	0	417	410	524	
15	0	0	0	0	410	410	524	
0	0	0	0	0	401	410	510	
1	0	0	0	0	392	410	536	
2	0	0	0	0	383	410	513	
3	0	0	0	0	375	409	469	
4	0	0	0	0	371	408	499	
5	0	0	0	0	372	407	516	
6	0	0	0	0	377	405	515	
7	0	0	0	0	382	403	512	
8	0	0	0	0	389	401	543	
9	0	0	0	0	396	399	489	
10	0	0	0	0	403	397	496	
11	0	0	0	0	404	396	525	
12	0	0	0	0	407	394	533	
13	0	0	0	0	408	392	539	
14	0	0	0	0	405	391	541	
15	0	0	0	0	399	390	555	
0	0	0	0	0	389	388	532	
1	0	0	0	0	378	387	531	
2	0	0	0	0	365	387	487	
3	0	0	0	0	350	386	476	
4	0	0	0	0	331	385	509	
5	0	0	0	0	307	385	490	
6	0	0	0	0	280	385	463	
7	0	0	0	0	249	385	477	
8	0	0	0	0	212	385	527	
9	0	0	0	0	173	385	519	
10	0	0	0	0	130	386	476	
11	0	0	0	0	83	387	640	
12	0	0	0	0	34	387	754	
13	0	0	0	0	0	389	673	
14	0	0	0	0	0	391	496	
15	0	0	0	0	0	391	463	
0	0	0	0	0	0	392	462	
1	0	0	0	0	0	393	475	
2	0	0	0	0	0	393	491	
3	0	0	0	0	0	394	485	
4	0	0	0	0	0	394	444	
5	0	0	0	0	0	395	480	
6	0	0	0	0	0	396	465	
7	0	0	0	0	0	395	482	
8	0	0	0	0	0	396	496	
9	0	0	0	0	0	396	516	
10	0	0	0	0	0	396	579	
11	0	0	0	0	0	395	472	
12	0	0	0	0	0	395	483	
13	0	0	0	0	0	392	512	
14	0	0	0	0	0	391	519	
15	0	0	0	0	0	389	519	
0	0	0	0	0	0	387	530	
1	0	0	0	0	0	385	527	
2	0	0	0	0	0	382	550	
3	0	0	0	0	0	379	527	
4	0	0	0	0	0	377	540	
5	0	0	0	0	0	374	550	
6	0	0	0	0	0	372	558	
7	0	0	0	0	0	369	546	
8	0	0	0	0	0	366	564	
9	0	0	0	0	0	364	554	
10	0	0	0	0	0	361	557	
11	0	0	0	0	0	359	541	
12	0	0	0	0	0	358	553	
13	0	0	0	0	0	356	543	
14	0	0	0	0	0	355	535	
15	0	0	0	0	0	354	507	
0	0	0	0	0	0	353	485	
1	0	0	0	0	0	353	490	
2	0	0	0	0	0	354	469	
3	0	0	0	0	0	353	451	
4	0	0	0	0	0	354	437	
5	0	0	0	0	0	355	481	
6	0	0	0	0	0	355	502	
7	0	0	0	0	0	355	470	
8	0	0	0	0	0	356	527	
9	0	0	0	0	0	356	470	
10	0	0	0	0	0	357	496	
11	0	0	0	0	0	358	484	
12	0	0	0	0	0	359	513	
13	0	0	0	0	0	360	511	
14	0	0	0	0	0	361	515	
15	0	0	0	0	0	364	571	
0	0	0	0	0	0	366	476	
1	0	0	0	0	0	370	509	
2	0	0	0	0	0	373	500	
3	0	0	0	0	113	378	506	
4	0	0	0	0	249	382	525	
5	0	0	0	0	372	388	515	
6	0	0	0	0	473	393	528	
7	0	0	0	0	555	399	523	
8	0	0	0	0	616	405	518	
9	0	0	0	0	660	410	507	
10	0	0	0	0	688	416	508	
11	0	0	0	0	702	422	504	
12	0	0	0	0	707	428	523	
13	0	0	0	0	705	434	500	
14	0	0	0	0	696	439	538	
15	0	0	0	0	683	445	497	
0	0	0	0	0	670	448	529	
1	0	0	0	0	656	452	505	
2	0	0	0	0	645	455	518	
3	0	0	0	0	636	457	547	
4	0	0	0	0	630	460	521	
5	0	0	0	0	626	461	515	
6	0	0	0	0	623	462	538	
7	0	0	0	0	621	463	530	
8	0	0	0	0	622	461	533	
9	0	0	0	0	622	460	513	
10	0	0	0	0	623	457	520	
11	0	0	0	0	622	453	526	
12	0	0	0	0	620	448	530	
13	0	0	0	0	619	442	531	
14	0	0	0	0	616	436	536	
15	0	0	0	0	612	429	536	
0	0	0	0	0	609	423	533	
1	0	0	0	0	607	419	536	
2	0	0	0	0	605	414	543	
3	0	0	0	0	601	411	553	
4	0	0	0	0	596	406	524	
5	0	0	0	0	589	403	522	
6	0	0	0	0	579	399	532	
7	0	0	0	0	568	397	530	
8	0	0	0	0	556	395	553	
9	0	0	0	0	547	393	531	
10	0	0	0	0	538	393	505	
11	0	0	0	0	529	393	505	
12	0	0	0	0	519	394	515	
13	0	0	0	0	512	396	515	
14	0	0	0	0	503	398	511	
15	0	0	0	0	492	401	508	
0	0	0	0	0	483	405	513	
1	0	0	0	0	476	409	515	
2	0	0	0	0	471	414	524	
3	0	0	0	0	466	419	507	
4	0	0	0	0	462	424	516	
5	0	0	0	0	456	429	528	
6	0	0	0	0	452	435	476	
7	0	0	0	0	448	441	486	
8	0	0	0	0	443	448	499	
9	0	0	0	0	440	454	484	
10	0	0	0	0	436	461	485	
11	0	0	0	0	432	467	486	
12	0	0	0	0	426	474	501	
13	0	0	0	0	422	481	487	
14	0	0	0	0	419	489	500	
15	0	0	0	0	418	496	504	
0	0	0	0	0	415	504	515	
1	0	0	0	0	413	512	529	
2	0	0	0	0	410	519	534	
3	0	0	0	0	406	527	495	
4	0	0	0	0	403	534	480	
5	0	0	0	0	401	542	471	
6	0	0	0	0	401	547	477	
7	0	0	0	0	401	554	460	
8	0	0	0	0	402	559	460	
9	0	0	0	0	404	565	465	
10	0	0	0	0	407	570	483	
11	0	0	0	0	407	575	476	
12	0	0	0	0	406	580	504	
13	0	0	0	0	407	584	652	
14	0	0	0	0	408	589	753	
15	0	0	0	0	409	592	654	
0	0	0	0	0	410	595	496	
1	0	0	0	0	413	598	430	
2	0	0	0	0	415	600	455	
3	0	0	0	0	419	602	440	
4	0	0	0	0	423	604	444	
5	0	0	0	0	428	605	451	
6	0	0	0	0	432	606	455	
7	0	0	0	0	435	606	466	
8	0	0	0	0	439	607	486	
9	0	0	0	0	443	606	477	
10	0	0	0	0	448	607	481	
11	0	0	0	0	451	606	494	
12	0	0	0	0	454	606	501	
13	0	0	0	0	455	605	483	
14	0	0	0	0	457	603	491	
15	0	0	0	0	458	602	505	
0	0	0	0	0	458	600	513	
1	0	0	0	0	457	597	503	
2	0	0	0	0	455	594	507	
3	0	0	0	0	455	592	510	
4	0	0	0	0	453	589	520	
5	0	0	0	0	453	585	524	
6	0	0	0	0	452	582	518	
7	0	0	0	0	451	577	530	
8	0	0	0	0	452	573	524	
9	0	0	0	0	454	568	533	
10	0	0	0	0	455	563	540	
11	0	0	0	0	457	558	543	
12	0	0	0	0	460	552	543	
13	0	0	0	0	468	547	556	
14	0	0	0	0	475	540	545	
15	0	0	0	0	483	535	533	
0	0	0	0	0	490	529	535	
1	0	0	0	0	497	524	497	
2	0	0	0	0	504	518	478	
3	0	0	0	0	508	513	460	
4	0	0	0	0	514	508	465	
5	0	0	0	0	520	503	471	
6	0	0	0	0	524	498	463	
7	0	0	0	0	526	494	487	
8	0	0	0	0	528	489	474	
9	0	0	0	0	529	486	470	
10	0	0	0	0	528	482	490	
11	0	0	0	0	527	478	501	
12	0	0	0	0	527	474	494	
13	0	0	0	0	528	471	495	
14	0	0	0	0	530	468	503	
15	0	0	0	0	533	465	502	
0	0	0	0	0	536	463	492	
1	0	0	0	0	538	460	511	
2	0	0	0	0	540	458	515	
3	0	0	0	0	543	457	522	
4	0	0	0	0	547	455	521	
5	0	0	0	0	549	453	516	
6	0	0	0	0	551	451	523	
7	0	0	0	0	551	449	519	
8	0	0	0	0	551	447	523	
9	0	0	0	0	549	444	508	
10	0	0	0	0	544	441	510	
11	0	0	0	0	539	439	518	
12	0	0	0	0	535	436	511	
13	0	0	0	0	531	433	504	
14	0	0	0	0	528	431	512	
15	0	0	0	0	523	428	492	
0	0	0	0	0	519	426	493	
1	0	0	0	0	517	423	501	
2	0	0	0	0	517	421	514	
3	0	0	0	0	515	419	512	
4	0	0	0	0	516	417	500	
5	0	0	0	0	517	415	501	
6	0	0	0	0	517	413	508	
7	0	0	0	0	516	411	515	
8	0	0	0	0	517	410	508	
9	0	0	0	0	516	408	495	
10	0	0	0	0	515	407	503	
11	0	0	0	0	514	406	519	
12	0	0	0	0	511	405	512	
13	0	0	0	0	508	404	496	
14	0	0	0	0	506	404	505	
15	0	0	0	0	504	404	503	
0	0	0	0	0	499	405	493	
1	0	0	0	0	496	405	509	
2	0	0	0	0	493	405	500	
3	0	0	0	0	492	406	497	
4	0	0	0	0	490	407	500	
5	0	0	0	0	490	407	484	
6	0	0	0	0	489	408	502	
7	0	0	0	0	487	408	526	
8	0	0	0	0	487	408	508	
9	0	0	0	0	486	409	507	
10	0	0	0	0	482	409	515	
11	0	0	0	0	480	410	509	
12	0	0	0	0	478	410	519	
13	0	0	0	0	478	411	512	
14	0	0	0	0	476	411	506	
15	0	0	0	0	475	412	507	
0	0	0	0	0	473	412	509	
1	0	0	0	0	471	412	508	
2	0	0	0	0	468	412	518	
3	0	0	0	0	464	412	501	
4	0	0	0	0	463	412	515	
5	0	0	0	0	462	411	507	
6	0	0	0	0	460	411	504	
7	0	0	0	0	458	411	508	
8	0	0	0	0	457	411	513	
9	0	0	0	0	456	410	499	
10	0	0	0	0	457	410	510	
11	0	0	0	0	458	410	512	
12	0	0	0	0	457	410	511	
13	0	0	0	0	458	409	515	
14	0	0	0	0	458	409	514	
15	0	0	0	0	457	409	506	
0	0	0	0	0	455	409	521	
1	0	0	0	0	454	408	524	
2	0	0	0	0	454	408	528	
3	0	0	0	0	453	408	518	
4	0	0	0	0	454	408	540	
5	0	0	0	0	453	408	542	
6	0	0	0	0	451	408	537	
7	0	0	0	0	453	407	543	
8	0	0	0	0	453	407	518	
9	0	0	0	0	455	407	503	
10	0	0	0	0	455	407	492	
11	0	0	0	0	455	408	483	
12	0	0	0	0	455	408	481	
13	0	0	0	0	454	408	481	
14	0	0	0	0	452	408	511	
15	0	0	0	0	451	409	498	
0	0	0	0	0	449	409	487	
1	0	0	0	0	449	410	499	
2	0	0	0	0	446	411	628	
3	0	0	0	0	443	412	767	
4	0	0	0	0	441	413	699	
5	0	0	0	0	440	414	526	
6	0	0	0	0	438	414	479	
7	0	0	0	0	438	415	468	
8	0	0	0	0	438	415	481	
9	0	0	0	0	438	415	476	
10	0	0	0	0	436	415	478	
11	0	0	0	0	435	414	485	
12	0	0	0	0	435	414	494	
13	0	0	0	0	434	413	488	
14	0	0	0	0	434	412	494	
15	0	0	0	0	434	411	501	
0	0	0	0	0	433	411	509	
1	0	0	0	0	432	409	509	
2	0	0	0	0	431	408	517	
3	0	0	0	0	430	407	523	
4	0	0	0	0	429	405	515	
5	0	0	0	0	431	402	512	
6	0	0	0	0	432	400	541	
7	0	0	0	0	432	398	525	
8	0	0	0	0	431	395	522	
9	0	0	0	0	430	392	526	
10	0	0	0	0	430	390	532	
11	0	0	0	0	430	387	531	
12	0	0	0	0	431	384	532	
13	0	0	0	0	432	381	529	
14	0	0	0	0	434	378	537	
15	0	0	0	0	438	375	545	
0	0	0	0	0	443	372	547	
1	0	0	0	0	451	369	532	
2	0	0	0	0	457	366	545	
3	0	0	0	0	464	364	526	
4	0	0	0	0	475	360	532	
5	0	0	0	0	486	357	514	
6	0	0	0	0	495	355	488	
7	0	0	0	0	506	352	471	
8	0	0	0	0	515	349	458	
9	0	0	0	0	522	346	446	
10	0	0	0	0	527	344	438	
11	0	0	0	0	531	341	443	
12	0	0	0	0	533	339	451	
13	0	0	0	0	535	337	446	
14	0	0	0	0	534	335	454	
15	0	0	0	0	532	333	461	
0	0	0	0	0	531	332	460	
1	0	0	0	0	532	332	467	
2	0	0	0	0	533	332	475	
3	0	0	0	0	536	331	490	
4	0	0	0	0	539	332	480	
5	0	0	0	0	542	332	506	
6	0	0	0	0	547	333	493	
7	0	0	0	0	550	334	503	
8	0	0	0	0	555	336	519	
9	0	0	0	0	558	338	499	
10	0	0	0	0	562	340	521	
11	0	0	0	0	566	340	516	
12	0	0	0	0	566	341	515	
13	0	0	0	0	566	342	512	
14	0	0	0	0	564	343	505	
15	0	0	0	0	561	343	496	
0	0	0	0	0	559	344	504	
1	0	0	0	0	556	345	498	
2	0	0	0	0	552	344	498	
3	0	0	0	0	548	344	484	
4	0	0	0	0	543	344	494	
5	0	0	0	0	537	344	487	
6	0	0	0	0	534	345	493	
7	0	0	0	0	531	345	502	
8	0	0	0	0	527	345	504	
9	0	0	0	0	524	345	502	
10	0	0	0	0	524	345	511	
11	0	0	0	0	525	345	525	
12	0	0	0	0	525	345	520	
13	0	0	0	0	524	345	514	
14	0	0	0	0	525	345	515	
15	0	0	0	0	524	345	518	
0	0	0	0	0	522	346	515	
1	0	0	0	0	519	346	520	
2	0	0	0	0	521	347	521	
3	0	0	0	0	521	348	511	
4	0	0	0	0	518	349	529	
5	0	0	0	0	518	351	524	
6	0	0	0	0	516	353	525	
7	0	0	0	0	513	355	517	
8	0	0	0	0	510	357	524	
9	0	0	0	0	510	359	523	
10	0	0	0	0	509	361	526	
11	0	0	0	0	507	363	526	
12	0	0	0	0	507	364	527	
13	0	0	0	0	505	366	533	
14	0	0	0	0	505	368	537	
15	0	0	0	0	503	369	523	
0	0	0	0	0	500	371	532	
1	0	0	0	0	499	372	516	
2	0	0	0	0	499	374	518	
3	0	0	0	0	498	375	516	
4	0	0	0	0	498	376	512	
5	0	0	0	0	497	377	505	
6	0	0	0	0	496	379	500	
7	0	0	0	0	495	380	511	
8	0	0	0	0	495	382	504	
9	0	0	0	0	495	383	500	
10	0	0	0	0	492	385	518	
11	0	0	0	0	490	387	519	
12	0	0	0	0	487	389	516	
13	0	0	0	0	487	391	511	
14	0	0	0	0	487	394	514	
15	0	0	0	0	488	398	514	
0	0	0	0	0	488	402	517	
1	0	0	0	0	488	407	513	
2	0	0	0	0	487	412	510	
3	0	0	0	0	486	419	512	
4	0	0	0	0	484	426	518	
5	0	0	0	0	483	433	522	
6	0	0	0	0	482	441	512	
7	0	0	0	0	478	448	508	
8	0	0	0	0	476	456	507	
9	0	0	0	0	478	464	515	
10	0	0	0	0	477	472	532	
11	0	0	0	0	476	480	560	
12	0	0	0	0	475	488	553	
13	0	0	0	0	476	496	556	
14	0	0	0	0	476	503	544	
15	0	0	0	0	475	509	510	
0	0	0	0	0	476	515	495	
1	0	0	0	0	475	521	488	
2	0	0	0	0	473	526	482	
3	0	0	0	0	473	531	486	
4	0	0	0	0	472	536	492	
5	0	0	0	0	469	541	474	
6	0	0	0	0	469	546	471	
7	0	0	0	0	469	551	515	
8	0	0	0	0	467	557	678	
9	0	0	0	0	468	563	738	
10	0	0	0	0	467	568	600	
11	0	0	0	0	466	574	486	
12	0	0	0	0	464	580	461	
13	0	0	0	0	465	585	455	
14	0	0	0	0	463	591	457	
15	0	0	0	0	461	596	457	
0	0	0	0	0	461	601	467	
1	0	0	0	0	462	607	465	
2	0	0	0	0	461	612	485	
3	0	0	0	0	460	617	490	
4	0	0	0	0	458	622	492	
5	0	0	0	0	457	626	500	
6	0	0	0	0	455	630	503	
7	0	0	0	0	452	633	500	
8	0	0	0	0	451	636	497	
9	0	0	0	0	452	638	500	
10	0	0	0	0	452	639	506	
11	0	0	0	0	453	640	502	
12	0	0	0	0	453	641	503	
13	0	0	0	0	455	642	512	
14	0	0	0	0	456	642	506	
15	0	0	0	0	455	641	515	
0	0	0	0	0	456	641	534	
1	0	0	0	0	459	640	517	
2	0	0	0	0	461	639	528	
3	0	0	0	0	462	638	525	
4	0	0	0	0	465	637	532	
5	0	0	0	0	469	635	533	
6	0	0	0	0	473	634	537	
7	0	0	0	0	479	632	544	
8	0	0	0	0	486	631	529	
9	0	0	0	0	494	630	539	
10	0	0	0	0	502	628	531	
11	0	0	0	0	510	627	504	
12	0	0	0	0	518	626	489	
13	0	0	0	0	522	625	441	
14	0	0	0	0	527	625	449	
15	0	0	0	0	532	624	463	
0	0	0	0	0	536	624	445	
1	0	0	0	0	539	624	451	
2	0	0	0	0	541	624	457	
3	0	0	0	0	542	623	474	
4	0	0	0	0	543	622	484	
5	0	0	0	0	545	621	488	
6	0	0	0	0	546	620	478	
7	0	0	0	0	547	618	487	
8	0	0	0	0	549	617	491	
9	0	0	0	0	552	616	508	
10	0	0	0	0	554	614	504	
11	0	0	0	0	557	612	513	
12	0	0	0	0	561	611	515	
13	0	0	0	0	566	609	521	
14	0	0	0	0	571	608	516	
15	0	0	0	0	574	607	516	
0	0	0	0	0	576	605	527	
1	0	0	0	0	579	603	496	
2	0	0	0	0	580	601	509	
3	0	0	0	0	579	599	514	
4	0	0	0	0	576	597	525	
5	0	0	0	0	573	595	500	
6	0	0	0	0	568	592	505	
7	0	0	0	0	565	590	519	
8	0	0	0	0	562	587	534	
9	0	0	0	0	559	583	499	
10	0	0	0	0	555	581	496	
11	0	0	0	0	551	578	514	
12	0	0	0	0	552	575	521	
13	0	0	0	0	550	572	517	
14	0	0	0	0	548	569	531	
15	0	0	0	0	546	568	529	
0	0	0	0	0	546	567	493	
1	0	0	0	0	546	566	521	
2	0	0	0	0	545	566	530	
3	0	0	0	0	544	568	508	
4	0	0	0	0	544	571	547	
5	0	0	0	0	542	577	523	
6	0	0	0	0	542	585	516	
7	0	0	0	0	541	594	535	
8	0	0	0	0	540	604	519	
9	0	0	0	0	538	616	538	
10	0	0	0	0	536	628	508	
11	0	0	0	0	534	641	521	
12	0	0	0	0	532	653	518	
13	0	0	0	0	530	666	527	
14	0	0	0	0	528	679	528	
15	0	0	0	0	525	691	508	
0	0	0	0	0	524	704	522	
1	0	0	0	0	524	716	526	
2	0	0	0	0	524	728	533	
3	0	0	0	0	524	738	524	
4	0	0	0	0	524	749	498	
5	0	0	0	0	523	758	510	
6	0	0	0	0	522	766	536	
7	0	0	0	0	521	774	528	
8	0	0	0	0	518	780	547	
9	0	0	0	0	516	786	527	
10	0	0	0	0	513	791	508	
11	0	0	0	0	511	794	489	
12	0	0	0	0	510	796	493	
13	0	0	0	0	508	797	500	
14	0	0	0	0	508	797	488	
15	0	0	0	0	508	797	478	
0	0	0	0	0	507	795	494	
1	0	0	0	0	505	792	471	
2	0	0	0	0	506	788	481	
3	0	0	0	0	508	785	480	
4	0	0	0	0	510	780	480	
5	0	0	0	0	512	773	487	
6	0	0	0	0	515	766	485	
7	0	0	0	0	515	759	503	
8	0	0	0	0	516	750	528	
9	0	0	0	0	515	740	520	
10	0	0	0	0	513	731	533	
11	0	0	0	0	510	720	532	
12	0	0	0	0	505	710	515	
13	0	0	0	0	499	700	510	
14	0	0	0	0	494	690	504	
15	0	0	0	0	488	679	452	
0	0	0	0	0	484	669	466	
1	0	0	0	0	481	657	479	
2	0	0	0	0	478	647	473	
3	0	0	0	0	474	636	508	
4	0	0	0	0	472	625	482	
5	0	0	0	0	469	614	457	
6	0	0	0	0	467	603	492	
7	0	0	0	0	465	591	665	
8	0	0	0	0	464	579	719	
9	0	0	0	0	462	567	588	
10	0	0	0	0	460	554	464	
11	0	0	0	0	459	540	438	
12	0	0	0	0	460	526	446	
13	0	0	0	0	462	511	386	
14	0	0	0	0	462	494	459	
15	0	0	0	0	463	477	466	
0	0	0	0	0	463	460	462	
1	0	0	0	0	463	441	446	
2	0	0	0	0	463	422	455	
3	0	0	0	0	464	403	472	
4	0	0	0	0	465	385	452	
5	0	0	0	0	466	366	452	
6	0	0	0	0	467	346	447	
7	0	0	0	0	469	326	472	
8	0	0	0	0	470	306	448	
9	0	0	0	0	469	287	460	
10	0	0	0	0	470	268	448	
11	0	0	0	0	470	251	466	
12	0	0	0	0	469	235	454	
13	0	0	0	0	468	220	468	
14	0	0	0	0	467	206	457	
15	0	0	0	0	466	193	469	
0	0	0	0	0	464	182	471	
1	0	0	0	0	464	170	519	
2	0	0	0	0	464	160	498	
3	0	0	0	0	466	153	515	
4	0	0	0	0	468	146	516	
5	0	0	0	0	472	140	532	
6	0	0	0	0	479	136	527	
7	0	0	0	0	484	131	537	
8	0	0	0	0	492	129	511	
9	0	0	0	0	502	127	512	
10	0	0	0	0	508	125	497	
11	0	0	0	0	518	126	493	
12	0	0	0	0	526	124	471	
13	0	0	0	0	534	124	447	
14	0	0	0	0	540	125	426	
15	0	0	0	0	545	125	437	
0	0	0	0	0	549	126	434	
1	0	0	0	0	552	126	462	
2	0	0	0	0	554	126	462	
3	0	0	0	0	556	126	476	
4	0	0	0	0	558	125	487	
5	0	0	0	0	560	126	482	
6	0	0	0	0	562	125	468	
7	0	0	0	0	565	123	473	
8	0	0	0	0	568	124	486	
9	0	0	0	0	571	123	507	
10	0	0	0	0	577	122	477	
11	0	0	0	0	583	124	491	
12	0	0	0	0	587	126	497	
13	0	0	0	0	589	127	499	
14	0	0	0	0	591	133	492	
15	0	0	0	0	593	137	505	
0	0	0	0	0	591	141	530	
1	0	0	0	0	590	147	519	
2	0	0	0	0	589	151	502	
3	0	0	0	0	587	157	499	
4	0	0	0	0	584	161	489	
5	0	0	0	0	580	168	519	
6	0	0	0	0	576	172	510	
7	0	0	0	0	573	178	524	
8	0	0	0	0	569	184	519	
9	0	0	0	0	568	189	517	
10	0	0	0	0	566	194	528	
11	0	0	0	0	564	199	526	
12	0	0	0	0	562	205	514	
13	0	0	0	0	562	210	520	
14	0	0	0	0	562	214	511	
15	0	0	0	0	563	217	536	
0	0	0	0	0	562	222	535	
1	0	0	0	0	562	227	540	
2	0	0	0	0	563	231	522	
3	0	0	0	0	564	233	547	
4	0	0	0	0	563	239	523	
5	0	0	0	0	562	242	537	
6	0	0	0	0	561	247	531	
7	0	0	0	0	559	252	521	
8	0	0	0	0	556	255	525	
9	0	0	0	0	554	261	549	
10	0	0	0	0	552	265	526	
11	0	0	0	0	550	270	523	
12	0	0	0	0	548	275	540	
13	0	0	0	0	546	281	537	
14	0	0	0	0	544	286	527	
15	0	0	0	0	543	291	537	
0	0	0	0	0	540	295	551	
1	0	0	0	0	539	300	527	
2	0	0	0	0	538	305	511	
3	0	0	0	0	535	311	518	
4	0	0	0	0	532	315	536	
5	0	0	0	0	530	319	537	
6	0	0	0	0	529	324	536	
7	0	0	0	0	529	327	536	
8	0	0	0	0	530	331	553	
9	0	0	0	0	529	335	542	
10	0	0	0	0	529	339	524	
11	0	0	0	0	528	341	523	
12	0	0	0	0	526	344	534	
13	0	0	0	0	525	348	531	
14	0	0	0	0	523	351	532	
15	0	0	0	0	521	353	536	
0	0	0	0	0	519	356	546	
1	0	0	0	0	518	359	548	
2	0	0	0	0	516	360	556	
3	0	0	0	0	514	362	593	
4	0	0	0	0	512	364	569	
5	0	0	0	0	513	366	548	
6	0	0	0	0	513	367	547	
7	0	0	0	0	513	368	522	
8	0	0	0	0	513	368	517	
9	0	0	0	0	512	368	519	
10	0	0	0	0	510	369	512	
11	0	0	0	0	509	370	506	
12	0	0	0	0	508	370	500	
13	0	0	0	0	505	370	521	
14	0	0	0	0	505	370	507	
15	0	0	0	0	504	371	499	
0	0	0	0	0	499	371	607	
1	0	0	0	0	497	371	753	
2	0	0	0	0	496	371	734	
3	0	0	0	0	495	371	573	
4	0	0	0	0	495	372	495	
5	0	0	0	0	496	372	463	
6	0	0	0	0	494	371	505	
7	0	0	0	0	492	372	473	
8	0	0	0	0	491	371	452	
9	0	0	0	0	489	372	466	
10	0	0	0	0	486	372	489	
11	0	0	0	0	486	372	478	
12	0	0	0	0	486	372	486	
13	0	0	0	0	486	372	497	
14	0	0	0	0	485	372	511	
15	0	0	0	0	486	371	504	
0	0	0	0	0	486	370	512	
1	0	0	0	0	484	369	496	
2	0	0	0	0	483	368	500	
3	0	0	0	0	483	366	506	
4	0	0	0	0	483	364	514	
5	0	0	0	0	481	362	515	
6	0	0	0	0	481	361	527	
7	0	0	0	0	482	358	516	
8	0	0	0	0	483	356	529	
9	0	0	0	0	483	354	526	
10	0	0	0	0	482	352	535	
11	0	0	0	0	481	351	546	
12	0	0	0	0	480	348	534	
13	0	0	0	0	481	346	547	
14	0	0	0	0	484	344	536	
15	0	0	0	0	488	343	529	
0	0	0	0	0	497	341	549	
1	0	0	0	0	508	340	555	
2	0	0	0	0	521	340	533	
3	0	0	0	0	533	340	527	
4	0	0	0	0	544	339	511	
5	0	0	0	0	556	339	481	
6	0	0	0	0	564	340	483	
7	0	0	0	0	571	339	474	
8	0	0	0	0	575	340	460	
9	0	0	0	0	579	341	463	
10	0	0	0	0	580	343	468	
11	0	0	0	0	580	345	484	
12	0	0	0	0	580	347	488	
13	0	0	0	0	578	350	485	
14	0	0	0	0	577	353	483	
15	0	0	0	0	577	357	503	
0	0	0	0	0	577	361	502	
1	0	0	0	0	579	366	495	
2	0	0	0	0	580	371	501	
3	0	0	0	0	582	377	505	
4	0	0	0	0	587	383	513	
5	0	0	0	0	590	389	506	
6	0	0	0	0	592	396	505	
7	0	0	0	0	594	403	507	
8	0	0	0	0	595	409	512	
9	0	0	0	0	598	416	505	
10	0	0	0	0	598	423	506	
11	0	0	0	0	598	430	506	
12	0	0	0	0	595	437	519	
13	0	0	0	0	590	444	509	
14	0	0	0	0	585	451	515	
15	0	0	0	0	581	457	513	
0	0	0	0	0	575	463	508	
1	0	0	0	0	571	470	506	
2	0	0	0	0	566	476	511	
3	0	0	0	0	562	482	495	
4	0	0	0	0	558	488	509	
5	0	0	0	0	556	494	499	
6	0	0	0	0	555	500	497	
7	0	0	0	0	555	507	501	
8	0	0	0	0	556	513	515	
9	0	0	0	0	554	519	507	
10	0	0	0	0	553	526	515	
11	0	0	0	0	552	532	499	
12	0	0	0	0	551	538	523	
13	0	0	0	0	550	545	518	
14	0	0	0	0	546	552	503	
15	0	0	0	0	543	559	504	
0	0	0	0	0	541	567	515	
1	0	0	0	0	540	575	518	
2	0	0	0	0	540	582	521	
3	0	0	0	0	537	590	525	
4	0	0	0	0	535	598	535	
5	0	0	0	0	532	606	509	
6	0	0	0	0	529	614	512	
7	0	0	0	0	527	622	516	
8	0	0	0	0	525	630	537	
9	0	0	0	0	525	638	512	
10	0	0	0	0	524	648	521	
11	0	0	0	0	522	659	508	
12	0	0	0	0	521	671	503	
13	0	0	0	0	519	683	521	
14	0	0	0	0	518	696	515	
15	0	0	0	0	517	708	502	
0	0	0	0	0	516	720	496	
1	0	0	0	0	515	732	503	
2	0	0	0	0	515	744	503	
3	0	0	0	0	513	755	497	
4	0	0	0	0	511	767	503	
5	0	0	0	0	508	778	504	
6	0	0	0	0	505	789	499	
7	0	0	0	0	503	800	496	
8	0	0	0	0	499	811	509	
9	0	0	0	0	496	821	500	
10	0	0	0	0	496	831	488	
11	0	0	0	0	496	840	521	
12	0	0	0	0	495	849	533	
13	0	0	0	0	494	857	514	
14	0	0	0	0	493	865	505	
15	0	0	0	0	491	871	531	
0	0	0	0	0	490	876	523	
1	0	0	0	0	490	880	521	
2	0	0	0	0	490	883	537	
3	0	0	0	0	492	885	543	
4	0	0	0	0	492	887	526	
5	0	0	0	0	492	887	500	
6	0	0	0	0	491	886	486	
7	0	0	0	0	492	884	470	
8	0	0	0	0	491	883	488	
9	0	0	0	0	489	882	480	
10	0	0	0	0	488	878	471	
11	0	0	0	0	487	875	468	
12	0	0	0	0	487	871	495	
13	0	0	0	0	486	867	469	
14	0	0	0	0	487	863	525	
15	0	0	0	0	487	859	678	
0	0	0	0	0	487	854	743	
1	0	0	0	0	485	848	564	
2	0	0	0	0	484	844	483	
3	0	0	0	0	483	838	465	
4	0	0	0	0	483	833	465	
5	0	0	0	0	479	826	465	
6	0	0	0	0	477	820	454	
7	0	0	0	0	477	813	467	
8	0	0	0	0	475	806	476	
9	0	0	0	0	473	799	491	
10	0	0	0	0	472	792	470	
11	0	0	0	0	471	783	496	
12	0	0	0	0	469	775	500	
13	0	0	0	0	467	767	484	
14	0	0	0	0	465	759	506	
15	0	0	0	0	466	750	523	
0	0	0	0	0	467	741	506	
1	0	0	0	0	467	732	507	
2	0	0	0	0	467	723	522	
3	0	0	0	0	467	714	516	
4	0	0	0	0	466	704	511	
5	0	0	0	0	464	696	529	
6	0	0	0	0	463	687	532	
7	0	0	0	0	461	678	521	
8	0	0	0	0	462	668	523	
9	0	0	0	0	462	659	537	
10	0	0	0	0	462	650	544	
11	0	0	0	0	463	641	544	
12	0	0	0	0	465	632	545	
13	0	0	0	0	470	624	559	
14	0	0	0	0	476	615	556	
15	0	0	0	0	484	606	546	
0	0	0	0	0	492	597	535	
1	0	0	0	0	500	588	540	
2	0	0	0	0	508	580	507	
3	0	0	0	0	515	571	487	
4	0	0	0	0	522	562	479	
5	0	0	0	0	528	553	464	
6	0	0	0	0	532	545	447	
7	0	0	0	0	540	537	450	
8	0	0	0	0	544	530	471	
9	0	0	0	0	548	523	465	
10	0	0	0	0	550	516	475	
11	0	0	0	0	550	510	480	
12	0	0	0	0	551	505	468	
13	0	0	0	0	551	500	487	
14	0	0	0	0	551	495	495	
15	0	0	0	0	553	492	504	
0	0	0	0	0	555	488	496	
1	0	0	0	0	557	485	515	
2	0	0	0	0	559	481	518	
3	0	0	0	0	562	479	530	
4	0	0	0	0	563	476	497	
5	0	0	0	0	564	474	516	
6	0	0	0	0	564	471	509	
7	0	0	0	0	565	469	519	
8	0	0	0	0	566	467	516	
9	0	0	0	0	563	464	509	
10	0	0	0	0	559	461	519	
11	0	0	0	0	555	458	507	
12	0	0	0	0	551	455	501	
13	0	0	0	0	547	452	521	
14	0	0	0	0	542	448	515	
15	0	0	0	0	540	444	493	
0	0	0	0	0	537	441	518	
1	0	0	0	0	535	439	497	
2	0	0	0	0	535	436	523	
3	0	0	0	0	534	433	500	
4	0	0	0	0	533	431	504	
5	0	0	0	0	531	429	511	
6	0	0	0	0	532	428	518	
7	0	0	0	0	532	427	518	
8	0	0	0	0	531	425	521	
9	0	0	0	0	530	424	519	
10	0	0	0	0	528	423	518	
11	0	0	0	0	528	422	524	
12	0	0	0	0	527	421	513	
13	0	0	0	0	524	420	506	
14	0	0	0	0	521	419	506	
15	0	0	0	0	520	419	501	
0	0	0	0	0	518	417	513	
1	0	0	0	0	516	416	493	
2	0	0	0	0	513	415	523	
3	0	0	0	0	512	414	508	
4	0	0	0	0	509	413	502	
5	0	0	0	0	505	412	516	
6	0	0	0	0	502	412	493	
7	0	0	0	0	500	411	495	
8	0	0	0	0	498	411	519	
9	0	0	0	0	496	411	515	
10	0	0	0	0	494	411	522	
11	0	0	0	0	492	410	507	
12	0	0	0	0	492	410	497	
13	0	0	0	0	491	410	513	
14	0	0	0	0	489	410	541	
15	0	0	0	0	488	410	503	
0	0	0	0	0	488	410	519	
1	0	0	0	0	487	410	512	
2	0	0	0	0	486	410	514	
3	0	0	0	0	485	410	507	
4	0	0	0	0	483	410	510	
5	0	0	0	0	483	410	523	
6	0	0	0	0	482	409	531	
7	0	0	0	0	481	409	522	
8	0	0	0	0	480	408	507	
9	0	0	0	0	479	408	509	
10	0	0	0	0	476	407	509	
11	0	0	0	0	476	407	523	
12	0	0	0	0	473	406	527	
13	0	0	0	0	471	406	523	
14	0	0	0	0	469	405	529	
15	0	0	0	0	470	404	536	
0	0	0	0	0	470	404	542	
1	0	0	0	0	469	403	539	
2	0	0	0	0	469	403	510	
3	0	0	0	0	470	403	508	
4	0	0	0	0	470	402	491	
5	0	0	0	0	470	402	486	
6	0	0	0	0	472	401	480	
7	0	0	0	0	471	401	475	
8	0	0	0	0	471	401	476	
9	0	0	0	0	471	401	505	
10	0	0	0	0	471	400	501	
11	0	0	0	0	470	400	468	
12	0	0	0	0	467	400	560	
13	0	0	0	0	466	400	732	
14	0	0	0	0	464	400	742	
15	0	0	0	0	463	399	559	
0	0	0	0	0	462	399	457	
1	0	0	0	0	463	398	447	
2	0	0	0	0	463	397	457	
3	0	0	0	0	465	396	462	
4	0	0	0	0	465	395	458	
5	0	0	0	0	463	395	458	
6	0	0	0	0	463	393	486	
7	0	0	0	0	463	393	489	
8	0	0	0	0	463	391	489	
9	0	0	0	0	462	389	488	
10	0	0	0	0	461	387	506	
11	0	0	0	0	461	386	507	
12	0	0	0	0	461	384	492	
13	0	0	0	0	462	382	505	
14	0	0	0	0	462	379	510	
15	0	0	0	0	460	377	504	
0	0	0	0	0	458	374	514	
1	0	0	0	0	456	372	512	
2	0	0	0	0	455	369	521	
3	0	0	0	0	455	367	532	
4	0	0	0	0	455	364	525	
5	0	0	0	0	455	361	518	
6	0	0	0	0	455	359	536	
7	0	0	0	0	456	356	560	
8	0	0	0	0	457	354	537	
9	0	0	0	0	459	351	531	
10	0	0	0	0	462	349	533	
11	0	0	0	0	467	347	537	
12	0	0	0	0	475	345	538	
13	0	0	0	0	483	343	529	
14	0	0	0	0	490	340	536	
15	0	0	0	0	499	339	514	
0	0	0	0	0	508	338	500	
1	0	0	0	0	516	337	464	
2	0	0	0	0	522	334	485	
3	0	0	0	0	526	334	422	
4	0	0	0	0	528	333	438	
5	0	0	0	0	531	332	442	
6	0	0	0	0	533	331	440	
7	0	0	0	0	532	331	450	
8	0	0	0	0	533	330	466	
9	0	0	0	0	533	329	479	
10	0	0	0	0	535	330	468	
11	0	0	0	0	536	329	456	
12	0	0	0	0	539	329	476	
13	0	0	0	0	542	329	481	
14	0	0	0	0	544	329	474	
15	0	0	0	0	547	329	484	
0	0	0	0	0	550	331	497	
1	0	0	0	0	553	331	484	
2	0	0	0	0	556	332	489	
3	0	0	0	0	558	334	505	
4	0	0	0	0	560	335	508	
5	0	0	0	0	560	335	494	
6	0	0	0	0	558	337	509	
7	0	0	0	0	554	337	499	
8	0	0	0	0	551	337	513	
9	0	0	0	0	547	337	515	
10	0	0	0	0	544	337	513	
11	0	0	0	0	540	337	495	
12	0	0	0	0	538	336	502	
13	0	0	0	0	536	335	528	
14	0	0	0	0	532	335	496	
15	0	0	0	0	531	334	508	
0	0	0	0	0	530	334	513	
1	0	0	0	0	529	334	517	
2	0	0	0	0	526	334	503	
3	0	0	0	0	525	334	517	
4	0	0	0	0	525	335	515	
5	0	0	0	0	524	336	511	
6	0	0	0	0	525	336	519	
7	0	0	0	0	527	338	533	
8	0	0	0	0	528	339	528	
9	0	0	0	0	528	341	512	
10	0	0	0	0	527	342	521	
11	0	0	0	0	525	344	526	
12	0	0	0	0	521	345	527	
13	0	0	0	0	518	347	525	
14	0	0	0	0	516	349	536	
15	0	0	0	0	515	351	527	
0	0	0	0	0	513	352	516	
1	0	0	0	0	512	354	517	
2	0	0	0	0	510	356	524	
3	0	0	0	0	508	358	512	
4	0	0	0	0	507	359	520	
5	0	0	0	0	503	360	514	
6	0	0	0	0	501	361	520	
7	0	0	0	0	501	362	518	
8	0	0	0	0	500	363	518	
9	0	0	0	0	499	364	521	
10	0	0	0	0	497	364	511	
11	0	0	0	0	495	366	505	
12	0	0	0	0	494	365	506	
13	0	0	0	0	495	366	514	
14	0	0	0	0	493	365	516	
15	0	0	0	0	493	365	521	
0	0	0	0	0	492	364	508	
1	0	0	0	0	489	363	495	
2	0	0	0	0	486	363	519	
3	0	0	0	0	486	361	521	
4	0	0	0	0	485	361	502	
5	0	0	0	0	484	360	516	
6	0	0	0	0	484	360	519	
7	0	0	0	0	485	359	523	
8	0	0	0	0	485	359	515	
9	0	0	0	0	483	359	508	
10	0	0	0	0	482	360	530	
11	0	0	0	0	480	361	512	
12	0	0	0	0	477	363	524	
13	0	0	0	0	476	364	520	
14	0	0	0	0	477	366	507	
15	0	0	0	0	477	368	513	
0	0	0	0	0	475	370	527	
1	0	0	0	0	474	373	519	
2	0	0	0	0	473	376	507	
3	0	0	0	0	472	378	514	
4	0	0	0	0	471	381	518	
5	0	0	0	0	471	383	507	
6	0	0	0	0	469	385	521	
7	0	0	0	0	467	388	530	
8	0	0	0	0	467	390	531	
9	0	0	0	0	468	392	538	
10	0	0	0	0	468	395	564	
11	0	0	0	0	470	397	558	
12	0	0	0	0	469	399	556	
13	0	0	0	0	468	401	538	
14	0	0	0	0	467	403	482	
15	0	0	0	0	466	404	472	
0	0	0	0	0	463	406	486	
1	0	0	0	0	462	407	492	
2	0	0	0	0	462	408	481	
3	0	0	0	0	461	409	486	
4	0	0	0	0	460	410	494	
5	0	0	0	0	460	411	469	
6	0	0	0	0	460	412	529	
7	0	0	0	0	460	413	701	
8	0	0	0	0	459	414	752	
9	0	0	0	0	460	415	598	
10	0	0	0	0	460	415	481	
11	0	0	0	0	461	417	441	
12	0	0	0	0	463	417	451	
13	0	0	0	0	462	418	449	
14	0	0	0	0	459	419	465	
15	0	0	0	0	458	420	462	
0	0	0	0	0	457	421	459	
1	0	0	0	0	459	422	467	
2	0	0	0	0	459	423	478	
3	0	0	0	0	459	423	480	
4	0	0	0	0	460	424	485	
5	0	0	0	0	459	425	497	
6	0	0	0	0	457	426	509	
7	0	0	0	0	455	426	500	
8	0	0	0	0	453	426	512	
9	0	0	0	0	452	427	496	
10	0	0	0	0	452	426	519	
11	0	0	0	0	451	426	504	
12	0	0	0	0	449	426	522	
13	0	0	0	0	448	425	521	
14	0	0	0	0	448	425	530	
15	0	0	0	0	449	423	538	
0	0	0	0	0	449	423	517	
1	0	0	0	0	451	423	519	
2	0	0	0	0	452	422	539	
3	0	0	0	0	457	421	529	
4	0	0	0	0	461	420	536	
5	0	0	0	0	467	420	529	
6	0	0	0	0	475	420	544	
7	0	0	0	0	483	420	542	
8	0	0	0	0	492	419	532	
9	0	0	0	0	501	420	529	
10	0	0	0	0	508	419	508	
11	0	0	0	0	515	420	471	
12	0	0	0	0	521	421	462	
13	0	0	0	0	525	422	443	
14	0	0	0	0	529	423	444	
15	0	0	0	0	531	424	441	
0	0	0	0	0	534	425	448	
1	0	0	0	0	535	427	468	
2	0	0	0	0	534	429	462	
3	0	0	0	0	534	431	486	
4	0	0	0	0	535	433	467	
5	0	0	0	0	536	436	468	
6	0	0	0	0	536	438	477	
7	0	0	0	0	539	441	481	
8	0	0	0	0	543	445	499	
9	0	0	0	0	547	448	508	
10	0	0	0	0	549	452	487	
11	0	0	0	0	552	455	496	
12	0	0	0	0	555	459	508	
13	0	0	0	0	559	464	502	
14	0	0	0	0	562	468	508	
15	0	0	0	0	564	472	525	
0	0	0	0	0	563	476	509	
1	0	0	0	0	564	479	515	
2	0	0	0	0	562	483	520	
3	0	0	0	0	560	486	525	
4	0	0	0	0	555	489	508	
5	0	0	0	0	548	492	502	
6	0	0	0	0	543	495	528	
7	0	0	0	0	539	497	508	
8	0	0	0	0	537	499	502	
9	0	0	0	0	538	502	505	
10	0	0	0	0	538	504	516	
11	0	0	0	0	537	507	507	
12	0	0	0	0	537	509	511	
13	0	0	0	0	536	512	502	
14	0	0	0	0	536	515	517	
15	0	0	0	0	536	517	515	
0	0	0	0	0	536	520	508	
1	0	0	0	0	533	523	509	
2	0	0	0	0	531	525	509	
3	0	0	0	0	529	529	525	
4	0	0	0	0	527	532	502	
5	0	0	0	0	527	536	513	
6	0	0	0	0	526	540	529	
7	0	0	0	0	525	544	528	
8	0	0	0	0	525	548	508	
9	0	0	0	0	524	552	516	
10	0	0	0	0	523	556	518	
11	0	0	0	0	522	560	527	
12	0	0	0	0	523	565	532	
13	0	0	0	0	521	569	519	
14	0	0	0	0	518	573	536	
15	0	0	0	0	518	577	510	
0	0	0	0	0	516	581	514	
1	0	0	0	0	514	584	528	
2	0	0	0	0	512	588	516	
3	0	0	0	0	509	591	519	
4	0	0	0	0	507	594	518	
5	0	0	0	0	507	597	515	
6	0	0	0	0	504	600	513	
7	0	0	0	0	503	602	521	
8	0	0	0	0	501	605	515	
9	0	0	0	0	499	607	524	
10	0	0	0	0	497	609	526	
11	0	0	0	0	496	611	532	
12	0	0	0	0	496	614	535	
13	0	0	0	0	496	616	513	
14	0	0	0	0	496	618	526	
15	0	0	0	0	496	620	533	
0	0	0	0	0	495	622	537	
1	0	0	0	0	494	624	545	
2	0	0	0	0	495	625	515	
3	0	0	0	0	495	627	532	
4	0	0	0	0	495	628	527	
5	0	0	0	0	494	629	533	
6	0	0	0	0	493	630	536	
7	0	0	0	0	492	632	514	
8	0	0	0	0	489	633	530	
9	0	0	0	0	489	633	545	
10	0	0	0	0	489	633	511	
11	0	0	0	0	488	634	525	
12	0	0	0	0	486	635	547	
13	0	0	0	0	486	635	550	
14	0	0	0	0	487	636	556	
15	0	0	0	0	487	635	546	
0	0	0	0	0	485	635	515	
1	0	0	0	0	486	635	502	
2	0	0	0	0	486	633	486	
3	0	0	0	0	484	632	477	
4	0	0	0	0	482	631	482	
5	0	0	0	0	480	630	481	
6	0	0	0	0	478	628	495	
7	0	0	0	0	478	626	482	
8	0	0	0	0	476	624	479	
9	0	0	0	0	473	623	568	
10	0	0	0	0	472	620	737	
11	0	0	0	0	472	618	716	
12	0	0	0	0	471	616	547	
13	0	0	0	0	471	613	466	
14	0	0	0	0	472	611	440	
15	0	0	0	0	470	609	444	
0	0	0	0	0	470	606	446	
1	0	0	0	0	469	603	447	
2	0	0	0	0	467	601	457	
3	0	0	0	0	467	598	459	
4	0	0	0	0	467	595	474	
5	0	0	0	0	468	592	477	
6	0	0	0	0	468	590	482	
7	0	0	0	0	468	586	483	
8	0	0	0	0	468	583	497	
9	0	0	0	0	468	579	504	
10	0	0	0	0	468	575	510	
11	0	0	0	0	468	572	504	
12	0	0	0	0	469	567	525	
13	0	0	0	0	470	562	528	
14	0	0	0	0	468	557	519	
15	0	0	0	0	468	551	519	
0	0	0	0	0	467	547	546	
1	0	0	0	0	467	542	523	
2	0	0	0	0	465	537	530	
3	0	0	0	0	466	532	536	
4	0	0	0	0	465	527	530	
5	0	0	0	0	466	523	540	
6	0	0	0	0	468	518	530	
7	0	0	0	0	470	514	545	
8	0	0	0	0	475	509	540	
9	0	0	0	0	480	505	530	
10	0	0	0	0	488	500	534	
11	0	0	0	0	497	496	549	
12	0	0	0	0	507	492	518	
13	0	0	0	0	515	487	498	
14	0	0	0	0	523	482	487	
15	0	0	0	0	530	477	455	
0	0	0	0	0	535	472	456	
1	0	0	0	0	539	466	439	
2	0	0	0	0	542	461	448	
3	0	0	0	0	544	456	463	
4	0	0	0	0	544	450	448	
5	0	0	0	0	547	445	452	
6	0	0	0	0	547	439	462	
7	0	0	0	0	547	434	460	
8	0	0	0	0	546	429	472	
9	0	0	0	0	547	423	471	
10	0	0	0	0	550	419	489	
11	0	0	0	0	552	414	474	
12	0	0	0	0	555	409	484	
13	0	0	0	0	558	405	486	
14	0	0	0	0	563	401	500	
15	0	0	0	0	568	398	499	
0	0	0	0	0	571	395	495	
1	0	0	0	0	574	392	513	
2	0	0	0	0	575	388	502	
3	0	0	0	0	574	385	493	
4	0	0	0	0	571	382	503	
5	0	0	0	0	569	379	496	
6	0	0	0	0	567	376	507	
7	0	0	0	0	564	373	494	
8	0	0	0	0	561	369	493	
9	0	0	0	0	557	365	489	
10	0	0	0	0	553	362	503	
11	0	0	0	0	549	359	484	
12	0	0	0	0	546	355	487	
13	0	0	0	0	545	351	486	
14	0	0	0	0	544	347	490	
15	0	0	0	0	545	345	471	
0	0	0	0	0	545	341	489	
1	0	0	0	0	545	338	490	
2	0	0	0	0	543	335	498	
3	0	0	0	0	544	332	474	
4	0	0	0	0	543	330	487	
5	0	0	0	0	543	328	497	
6	0	0	0	0	542	325	484	
7	0	0	0	0	542	323	515	
8	0	0	0	0	540	320	515	
9	0	0	0	0	538	319	516	
10	0	0	0	0	536	318	513	
11	0	0	0	0	532	317	521	
12	0	0	0	0	530	316	519	
13	0	0	0	0	527	316	523	
14	0	0	0	0	526	316	524	
15	0	0	0	0	524	316	528	
0	0	0	0	0	523	316	535	
1	0	0	0	0	521	317	517	
2	0	0	0	0	520	317	516	
3	0	0	0	0	519	319	518	
4	0	0	0	0	517	319	535	
5	0	0	0	0	515	319	521	
6	0	0	0	0	513	320	521	
7	0	0	0	0	512	320	519	
8	0	0	0	0	511	321	509	
9	0	0	0	0	511	321	515	
10	0	0	0	0	511	321	508	
11	0	0	0	0	512	321	523	
12	0	0	0	0	510	321	521	
13	0	0	0	0	509	321	512	
14	0	0	0	0	508	321	507	
15	0	0	0	0	507	321	518	
0	0	0	0	0	506	321	523	
1	0	0	0	0	503	321	509	
2	0	0	0	0	502	323	521	
3	0	0	0	0	500	322	515	
4	0	0	0	0	498	322	512	
5	0	0	0	0	496	321	504	
6	0	0	0	0	494	322	510	
7	0	0	0	0	492	322	514	
8	0	0	0	0	490	322	504	
9	0	0	0	0	488	321	503	
10	0	0	0	0	487	323	512	
11	0	0	0	0	484	322	498	
12	0	0	0	0	482	323	511	
13	0	0	0	0	483	323	506	
14	0	0	0	0	483	324	512	
15	0	0	0	0	486	325	521	
0	0	0	0	0	488	325	525	
1	0	0	0	0	491	327	562	
2	0	0	0	0	492	326	559	
3	0	0	0	0	492	327	537	
4	0	0	0	0	491	327	522	
5	0	0	0	0	490	329	488	
6	0	0	0	0	488	329	483	
7	0	0	0	0	487	331	471	
8	0	0	0	0	485	331	472	
9	0	0	0	0	482	332	480	
10	0	0	0	0	480	334	474	
11	0	0	0	0	477	335	486	
12	0	0	0	0	474	335	481	
13	0	0	0	0	472	337	519	
14	0	0	0	0	472	338	685	
15	0	0	0	0	472	339	743	
0	0	0	0	0	469	340	615	
1	0	0	0	0	468	342	487	
2	0	0	0	0	469	343	450	
3	0	0	0	0	468	344	436	
4	0	0	0	0	466	344	447	
5	0	0	0	0	467	345	443	
6	0	0	0	0	467	345	453	
7	0	0	0	0	467	347	454	
8	0	0	0	0	467	346	445	
9	0	0	0	0	468	346	463	
10	0	0	0	0	467	346	472	
11	0	0	0	0	467	347	458	
12	0	0	0	0	465	347	478	
13	0	0	0	0	465	347	476	
14	0	0	0	0	464	346	475	
15	0	0	0	0	465	345	482	
0	0	0	0	0	463	345	493	
1	0	0	0	0	462	343	499	
2	0	0	0	0	461	342	498	
3	0	0	0	0	461	340	505	
4	0	0	0	0	462	338	527	
5	0	0	0	0	462	336	513	
6	0	0	0	0	463	334	508	
7	0	0	0	0	463	332	520	
8	0	0	0	0	465	329	515	
9	0	0	0	0	468	327	524	
10	0	0	0	0	472	325	539	
11	0	0	0	0	475	324	538	
12	0	0	0	0	479	322	550	
13	0	0	0	0	484	319	530	
14	0	0	0	0	492	318	552	
15	0	0	0	0	500	316	544	
0	0	0	0	0	508	314	529	
1	0	0	0	0	514	312	508	
2	0	0	0	0	521	311	487	
3	0	0	0	0	527	309	479	
4	0	0	0	0	532	307	450	
5	0	0	0	0	536	306	451	
6	0	0	0	0	538	305	464	
7	0	0	0	0	540	305	454	
8	0	0	0	0	543	304	469	
9	0	0	0	0	544	303	473	
10	0	0	0	0	547	302	483	
11	0	0	0	0	549	303	501	
12	0	0	0	0	551	302	512	
13	0	0	0	0	552	302	510	
14	0	0	0	0	554	303	511	
15	0	0	0	0	558	304	511	
0	0	0	0	0	561	304	523	
1	0	0	0	0	567	305	524	
2	0	0	0	0	570	307	532	
3	0	0	0	0	574	308	524	
4	0	0	0	0	575	311	527	
5	0	0	0	0	579	313	547	
6	0	0	0	0	580	316	542	
7	0	0	0	0	581	316	516	
8	0	0	0	0	578	318	546	
9	0	0	0	0	577	319	528	
10	0	0	0	0	573	320	523	
11	0	0	0	0	570	322	530	
12	0	0	0	0	567	322	515	
13	0	0	0	0	563	323	508	
14	0	0	0	0	557	323	524	
15	0	0	0	0	552	323	540	
0	0	0	0	0	547	323	487	
1	0	0	0	0	543	323	494	
2	0	0	0	0	541	324	519	
3	0	0	0	0	541	326	507	
4	0	0	0	0	540	327	501	
5	0	0	0	0	540	328	508	
6	0	0	0	0	541	331	524	
7	0	0	0	0	542	334	490	
8	0	0	0	0	542	337	511	
9	0	0	0	0	542	340	494	
10	0	0	0	0	542	344	504	
11	0	0	0	0	540	349	506	
12	0	0	0	0	538	352	498	
13	0	0	0	0	535	358	495	
14	0	0	0	0	534	363	514	
15	0	0	0	0	532	367	499	
0	0	0	0	0	530	372	510	
1	0	0	0	0	529	377	510	
2	0	0	0	0	528	382	525	
3	0	0	0	0	528	386	508	
4	0	0	0	0	527	391	512	
5	0	0	0	0	525	395	487	
6	0	0	0	0	524	399	504	
7	0	0	0	0	524	402	498	
8	0	0	0	0	521	405	512	
9	0	0	0	0	520	408	500	
10	0	0	0	0	520	411	508	
11	0	0	0	0	519	414	499	
12	0	0	0	0	518	417	505	
13	0	0	0	0	516	419	501	
14	0	0	0	0	514	422	519	
15	0	0	0	0	512	424	504	
0	0	0	0	0	510	427	512	
1	0	0	0	0	510	430	505	
2	0	0	0	0	508	432	516	
3	0	0	0	0	508	434	511	
4	0	0	0	0	508	437	524	
5	0	0	0	0	507	439	503	
6	0	0	0	0	505	441	519	
7	0	0	0	0	504	443	527	
8	0	0	0	0	501	445	506	
9	0	0	0	0	499	447	511	
10	0	0	0	0	497	449	515	
11	0	0	0	0	496	450	513	
12	0	0	0	0	493	452	514	
13	0	0	0	0	492	454	517	
14	0	0	0	0	490	455	525	
15	0	0	0	0	489	457	517	
0	0	0	0	0	488	459	512	
1	0	0	0	0	488	461	521	
2	0	0	0	0	487	462	519	
3	0	0	0	0	486	464	510	
4	0	0	0	0	485	467	517	
5	0	0	0	0	485	468	531	
6	0	0	0	0	483	471	535	
7	0	0	0	0	485	472	543	
8	0	0	0	0	485	475	538	
9	0	0	0	0	483	477	536	
10	0	0	0	0	482	479	519	
11	0	0	0	0	482	481	478	
12	0	0	0	0	478	484	473	
13	0	0	0	0	478	487	490	
14	0	0	0	0	478	489	477	
15	0	0	0	0	479	492	489	
0	0	0	0	0	477	496	485	
1	0	0	0	0	474	499	493	
2	0	0	0	0	473	502	470	
3	0	0	0	0	471	506	580	
4	0	0	0	0	468	509	742	
5	0	0	0	0	467	513	734	
6	0	0	0	0	466	517	571	
7	0	0	0	0	465	521	474	
8	0	0	0	0	464	525	464	
9	0	0	0	0	462	528	439	
10	0	0	0	0	462	532	448	
11	0	0	0	0	463	536	463	
12	0	0	0	0	465	540	466	
13	0	0	0	0	466	544	484	
14	0	0	0	0	467	548	476	
15	0	0	0	0	467	552	474	
0	0	0	0	0	468	556	499	
1	0	0	0	0	468	560	488	
2	0	0	0	0	467	564	509	
3	0	0	0	0	465	568	504	
4	0	0	0	0	465	572	504	
5	0	0	0	0	465	574	505	
6	0	0	0	0	467	576	523	
7	0	0	0	0	466	579	522	
8	0	0	0	0	465	581	511	
9	0	0	0	0	463	583	530	
10	0	0	0	0	464	584	529	
11	0	0	0	0	464	585	534	
12	0	0	0	0	463	587	530	
13	0	0	0	0	460	588	539	
14	0	0	0	0	459	588	557	
15	0	0	0	0	459	589	543	
0	0	0	0	0	461	590	537	
1	0	0	0	0	467	590	556	
2	0	0	0	0	471	591	566	
3	0	0	0	0	478	591	557	
4	0	0	0	0	485	592	543	
5	0	0	0	0	493	592	540	
6	0	0	0	0	500	593	532	
7	0	0	0	0	510	593	490	
8	0	0	0	0	518	594	478	
9	0	0	0	0	524	595	459	
10	0	0	0	0	528	595	451	
11	0	0	0	0	533	595	459	
12	0	0	0	0	537	596	447	
13	0	0	0	0	540	597	439	
14	0	0	0	0	542	598	459	
15	0	0	0	0	544	599	457	
0	0	0	0	0	545	600	463	
1	0	0	0	0	546	601	464	
2	0	0	0	0	547	602	481	
3	0	0	0	0	547	604	472	
4	0	0	0	0	548	606	482	
5	0	0	0	0	551	607	479	
6	0	0	0	0	554	608	492	
7	0	0	0	0	561	609	487	
8	0	0	0	0	567	611	505	
9	0	0	0	0	570	612	503	
10	0	0	0	0	573	613	497	
11	0	0	0	0	574	614	492	
12	0	0	0	0	575	615	507	
13	0	0	0	0	574	615	494	
14	0	0	0	0	572	616	503	
15	0	0	0	0	568	615	503	
0	0	0	0	0	564	615	512	
1	0	0	0	0	559	615	495	
2	0	0	0	0	553	615	509	
3	0	0	0	0	550	613	511	
4	0	0	0	0	545	612	520	
5	0	0	0	0	542	611	502	
6	0	0	0	0	539	610	512	
7	0	0	0	0	537	608	502	
8	0	0	0	0	534	607	500	
9	0	0	0	0	533	606	505	
10	0	0	0	0	535	605	499	
11	0	0	0	0	537	603	516	
12	0	0	0	0	536	603	524	
13	0	0	0	0	537	602	501	
14	0	0	0	0	536	601	511	
15	0	0	0	0	536	601	520	
0	0	0	0	0	536	601	513	
1	0	0	0	0	535	600	513	
2	0	0	0	0	534	600	520	
3	0	0	0	0	532	600	507	
4	0	0	0	0	529	600	512	
5	0	0	0	0	529	599	530	
6	0	0	0	0	529	598	510	
7	0	0	0	0	527	597	509	
8	0	0	0	0	524	595	511	
9	0	0	0	0	521	594	508	
10	0	0	0	0	519	591	514	
11	0	0	0	0	518	590	504	
12	0	0	0	0	515	587	514	
13	0	0	0	0	515	584	519	
14	0	0	0	0	513	581	512	
15	0	0	0	0	513	579	510	
0	0	0	0	0	513	575	513	
1	0	0	0	0	512	572	517	
2	0	0	0	0	511	568	522	
3	0	0	0	0	509	565	511	
4	0	0	0	0	505	561	516	
5	0	0	0	0	502	558	519	
6	0	0	0	0	498	553	498	
7	0	0	0	0	496	549	510	
8	0	0	0	0	495	545	523	
9	0	0	0	0	495	541	508	
10	0	0	0	0	492	537	503	
11	0	0	0	0	492	534	512	
12	0	0	0	0	491	530	515	
13	0	0	0	0	492	526	508	
14	0	0	0	0	493	523	509	
15	0	0	0	0	494	520	507	
0	0	0	0	0	496	516	524	
1	0	0	0	0	496	513	499	
2	0	0	0	0	496	510	510	
3	0	0	0	0	495	507	531	
4	0	0	0	0	495	504	516	
5	0	0	0	0	494	501	521	
6	0	0	0	0	492	498	508	
7	0	0	0	0	488	495	523	
8	0	0	0	0	485	492	527	
9	0	0	0	0	483	489	528	
10	0	0	0	0	479	486	545	
11	0	0	0	0	476	484	550	
12	0	0	0	0	474	481	533	
13	0	0	0	0	472	479	518	
14	0	0	0	0	471	476	495	
15	0	0	0	0	469	474	480	
0	0	0	0	0	469	472	480	
1	0	0	0	0	470	470	511	
2	0	0	0	0	468	467	463	
3	0	0	0	0	467	466	487	
4	0	0	0	0	467	464	490	
5	0	0	0	0	467	462	477	
6	0	0	0	0	468	461	522	
7	0	0	0	0	469	460	671	
8	0	0	0	0	469	459	750	
9	0	0	0	0	469	457	630	
10	0	0	0	0	469	456	512	
11	0	0	0	0	470	455	433	
12	0	0	0	0	470	453	444	
13	0	0	0	0	471	452	436	
14	0	0	0	0	472	450	440	
15	0	0	0	0	470	449	443	
0	0	0	0	0	469	447	456	
1	0	0	0	0	468	446	466	
2	0	0	0	0	468	444	460	
3	0	0	0	0	466	443	476	
4	0	0	0	0	465	441	470	
5	0	0	0	0	464	440	479	
6	0	0	0	0	463	438	479	
7	0	0	0	0	462	435	487	
8	0	0	0	0	461	433	508	
9	0	0	0	0	460	430	511	
10	0	0	0	0	459	427	529	
11	0	0	0	0	459	424	505	
12	0	0	0	0	460	421	519	
13	0	0	0	0	460	417	513	
14	0	0	0	0	459	414	540	
15	0	0	0	0	460	410	528	
0	0	0	0	0	459	407	519	
1	0	0	0	0	458	403	532	
2	0	0	0	0	460	400	543	
3	0	0	0	0	462	396	551	
4	0	0	0	0	463	392	540	
5	0	0	0	0	466	388	546	
6	0	0	0	0	472	384	552	
7	0	0	0	0	480	380	549	
8	0	0	0	0	488	376	535	
9	0	0	0	0	496	372	532	
10	0	0	0	0	502	368	516	
11	0	0	0	0	508	365	501	
12	0	0	0	0	515	362	471	
13	0	0	0	0	520	358	458	
14	0	0	0	0	524	356	460	
15	0	0	0	0	526	353	470	
0	0	0	0	0	526	350	456	
1	0	0	0	0	526	348	476	
2	0	0	0	0	527	346	489	
3	0	0	0	0	526	344	486	
4	0	0	0	0	525	343	474	
5	0	0	0	0	527	341	482	
6	0	0	0	0	527	340	501	
7	0	0	0	0	530	339	504	
8	0	0	0	0	532	338	513	
9	0	0	0	0	534	338	508	
10	0	0	0	0	540	338	510	
11	0	0	0	0	542	338	514	
12	0	0	0	0	544	339	542	
13	0	0	0	0	547	339	526	
14	0	0	0	0	549	340	553	
15	0	0	0	0	549	339	516	
0	0	0	0	0	548	340	530	
1	0	0	0	0	548	339	550	
2	0	0	0	0	549	339	554	
3	0	0	0	0	547	339	527	
4	0	0	0	0	545	339	529	
5	0	0	0	0	540	338	524	
6	0	0	0	0	537	337	537	
7	0	0	0	0	533	335	534	
8	0	0	0	0	528	334	518	
9	0	0	0	0	525	333	515	
10	0	0	0	0	523	331	506	
11	0	0	0	0	523	330	518	
12	0	0	0	0	522	329	514	
13	0	0	0	0	522	328	499	
14	0	0	0	0	523	327	520	
15	0	0	0	0	524	329	518	
0	0	0	0	0	523	329	519	
1	0	0	0	0	523	329	529	
2	0	0	0	0	523	330	514	
3	0	0	0	0	522	332	523	
4	0	0	0	0	521	332	532	
5	0	0	0	0	518	334	505	
6	0	0	0	0	516	334	514	
7	0	0	0	0	515	335	506	
8	0	0	0	0	513	336	507	
9	0	0	0	0	511	337	515	
10	0	0	0	0	508	338	503	
11	0	0	0	0	508	338	511	
12	0	0	0	0	506	340	524	
13	0	0	0	0	504	341	508	
14	0	0	0	0	504	343	514	
15	0	0	0	0	502	344	515	
0	0	0	0	0	501	347	500	
1	0	0	0	0	499	349	508	
2	0	0	0	0	499	351	528	
3	0	0	0	0	500	354	519	
4	0	0	0	0	499	356	512	
5	0	0	0	0	496	358	503	
6	0	0	0	0	495	360	517	
7	0	0	0	0	495	362	518	
8	0	0	0	0	495	364	496	
9	0	0	0	0	493	366	504	
10	0	0	0	0	491	367	504	
11	0	0	0	0	493	368	505	
12	0	0	0	0	493	370	512	
13	0	0	0	0	493	371	531	
14	0	0	0	0	493	373	530	
15	0	0	0	0	492	374	501	
0	0	0	0	0	492	376	512	
1	0	0	0	0	489	377	505	
2	0	0	0	0	487	378	513	
3	0	0	0	0	487	379	502	
4	0	0	0	0	486	380	522	
5	0	0	0	0	485	382	507	
6	0	0	0	0	484	383	514	
7	0	0	0	0	483	384	510	
8	0	0	0	0	481	385	508	
9	0	0	0	0	479	385	506	
10	0	0	0	0	476	387	508	
11	0	0	0	0	474	387	511	
12	0	0	0	0	472	388	515	
13	0	0	0	0	470	388	523	
14	0	0	0	0	470	388	503	
15	0	0	0	0	470	389	531	
0	0	0	0	0	468	389	560	
1	0	0	0	0	466	389	556	
2	0	0	0	0	467	389	554	
3	0	0	0	0	467	389	524	
4	0	0	0	0	466	390	492	
5	0	0	0	0	467	390	478	
6	0	0	0	0	466	391	479	
7	0	0	0	0	467	391	484	
8	0	0	0	0	468	391	486	
9	0	0	0	0	471	391	479	
10	0	0	0	0	473	391	486	
11	0	0	0	0	474	391	480	
12	0	0	0	0	473	392	515	
13	0	0	0	0	472	391	668	
14	0	0	0	0	473	392	750	
15	0	0	0	0	473	392	645	
0	0	0	0	0	473	393	515	
1	0	0	0	0	476	393	451	
2	0	0	0	0	476	392	455	
3	0	0	0	0	473	392	464	
4	0	0	0	0	470	392	461	
5	0	0	0	0	467	392	471	
6	0	0	0	0	464	391	473	
7	0	0	0	0	462	391	483	
8	0	0	0	0	460	391	495	
9	0	0	0	0	459	390	508	
10	0	0	0	0	459	390	510	
11	0	0	0	0	458	390	498	
12	0	0	0	0	458	389	514	
13	0	0	0	0	458	388	511	
14	0	0	0	0	459	387	523	
15	0	0	0	0	459	385	511	
0	0	0	0	0	459	383	521	
1	0	0	0	0	460	381	531	
2	0	0	0	0	459	378	519	
3	0	0	0	0	457	375	525	
4	0	0	0	0	457	372	529	
5	0	0	0	0	458	369	532	
6	0	0	0	0	456	366	525	
7	0	0	0	0	458	364	529	
8	0	0	0	0	462	360	538	
9	0	0	0	0	464	357	527	
10	0	0	0	0	469	354	551	
11	0	0	0	0	473	351	536	
12	0	0	0	0	480	348	547	
13	0	0	0	0	487	345	534	
14	0	0	0	0	493	343	548	
15	0	0	0	0	500	340	537	
0	0	0	0	0	506	337	517	
1	0	0	0	0	512	335	516	
2	0	0	0	0	516	332	477	
3	0	0	0	0	519	331	463	
4	0	0	0	0	521	328	475	
5	0	0	0	0	522	326	467	
6	0	0	0	0	522	325	483	
7	0	0	0	0	522	323	477	
8	0	0	0	0	521	322	481	
9	0	0	0	0	520	319	493	
10	0	0	0	0	519	319	499	
11	0	0	0	0	518	318	495	
12	0	0	0	0	519	318	494	
13	0	0	0	0	521	317	507	
14	0	0	0	0	524	316	498	
15	0	0	0	0	527	316	497	
0	0	0	0	0	529	316	497	
1	0	0	0	0	534	316	498	
2	0	0	0	0	539	317	506	
3	0	0	0	0	543	317	506	
4	0	0	0	0	548	318	512	
5	0	0	0	0	551	319	509	
6	0	0	0	0	554	319	523	
7	0	0	0	0	555	320	509	
8	0	0	0	0	553	320	510	
9	0	0	0	0	551	321	509	
10	0	0	0	0	549	320	526	
11	0	0	0	0	546	320	514	
12	0	0	0	0	543	320	523	
13	0	0	0	0	540	319	509	
14	0	0	0	0	537	319	508	
15	0	0	0	0	535	319	512	
0	0	0	0	0	532	319	519	
1	0	0	0	0	529	319	493	
2	0	0	0	0	527	320	509	
3	0	0	0	0	526	319	505	
4	0	0	0	0	526	319	503	
5	0	0	0	0	523	321	497	
6	0	0	0	0	522	321	506	
7	0	0	0	0	521	323	511	
8	0	0	0	0	519	325	519	
9	0	0	0	0	518	327	498	
10	0	0	0	0	518	329	512	
11	0	0	0	0	517	331	510	
12	0	0	0	0	517	334	517	
13	0	0	0	0	519	337	508	
14	0	0	0	0	520	341	505	
15	0	0	0	0	521	345	516	
0	0	0	0	0	520	349	526	
1	0	0	0	0	520	354	525	
2	0	0	0	0	521	358	516	
3	0	0	0	0	519	363	527	
4	0	0	0	0	515	369	518	
5	0	0	0	0	510	374	533	
6	0	0	0	0	505	380	526	
7	0	0	0	0	502	385	525	
8	0	0	0	0	500	391	531	
9	0	0	0	0	499	398	524	
10	0	0	0	0	496	405	527	
11	0	0	0	0	496	412	524	
12	0	0	0	0	496	418	515	
13	0	0	0	0	498	425	532	
14	0	0	0	0	499	432	513	
15	0	0	0	0	502	440	520	
0	0	0	0	0	503	447	521	
1	0	0	0	0	504	454	521	
2	0	0	0	0	504	461	519	
3	0	0	0	0	502	468	534	
4	0	0	0	0	500	476	538	
5	0	0	0	0	497	483	522	
6	0	0	0	0	496	490	524	
7	0	0	0	0	494	497	537	
8	0	0	0	0	491	504	531	
9	0	0	0	0	489	511	525	
10	0	0	0	0	486	518	528	
11	0	0	0	0	485	524	519	
12	0	0	0	0	485	531	531	
13	0	0	0	0	486	537	519	
14	0	0	0	0	485	544	526	
15	0	0	0	0	487	550	537	
0	0	0	0	0	486	557	540	
1	0	0	0	0	486	563	528	
2	0	0	0	0	486	569	536	
3	0	0	0	0	487	575	531	
4	0	0	0	0	486	582	552	
5	0	0	0	0	486	588	565	
6	0	0	0	0	486	594	575	
7	0	0	0	0	484	600	565	
8	0	0	0	0	482	606	565	
9	0	0	0	0	482	611	540	
10	0	0	0	0	480	617	513	
11	0	0	0	0	478	623	497	
12	0	0	0	0	476	628	499	
13	0	0	0	0	477	633	511	
14	0	0	0	0	475	638	511	
15	0	0	0	0	474	643	510	
0	0	0	0	0	474	647	511	
1	0	0	0	0	473	652	508	
2	0	0	0	0	472	656	646	
3	0	0	0	0	472	662	755	
4	0	0	0	0	472	665	700	
5	0	0	0	0	472	670	543	
6	0	0	0	0	472	673	484	
7	0	0	0	0	472	676	467	
8	0	0	0	0	472	680	474	
9	0	0	0	0	472	683	465	
10	0	0	0	0	473	686	475	
11	0	0	0	0	475	689	485	
12	0	0	0	0	473	691	469	
13	0	0	0	0	473	694	478	
14	0	0	0	0	473	696	481	
15	0	0	0	0	474	699	489	
0	0	0	0	0	472	701	509	
1	0	0	0	0	471	703	496	
2	0	0	0	0	470	704	509	
3	0	0	0	0	469	705	512	
4	0	0	0	0	469	705	509	
5	0	0	0	0	469	705	520	
6	0	0	0	0	468	704	518	
7	0	0	0	0	468	704	519	
8	0	0	0	0	467	704	531	
9	0	0	0	0	465	703	512	
10	0	0	0	0	465	702	523	
11	0	0	0	0	466	701	522	
12	0	0	0	0	468	700	541	
13	0	0	0	0	469	699	537	
14	0	0	0	0	471	697	552	
15	0	0	0	0	471	695	534	
0	0	0	0	0	473	694	551	
1	0	0	0	0	476	691	520	
2	0	0	0	0	481	689	536	
3	0	0	0	0	486	687	545	
4	0	0	0	0	492	685	534	
5	0	0	0	0	499	681	516	
6	0	0	0	0	506	679	506	
7	0	0	0	0	512	677	482	
8	0	0	0	0	515	674	456	
9	0	0	0	0	519	671	451	
10	0	0	0	0	521	669	456	
11	0	0	0	0	521	667	471	
12	0	0	0	0	522	664	465	
13	0	0	0	0	524	663	462	
14	0	0	0	0	527	660	464	
15	0	0	0	0	529	658	453	
0	0	0	0	0	530	656	472	
1	0	0	0	0	531	654	478	
2	0	0	0	0	532	652	487	
3	0	0	0	0	532	649	480	
4	0	0	0	0	533	646	484	
5	0	0	0	0	536	643	488	
6	0	0	0	0	539	640	492	
7	0	0	0	0	543	638	502	
8	0	0	0	0	545	636	490	
9	0	0	0	0	547	632	488	
10	0	0	0	0	548	630	501	
11	0	0	0	0	549	626	500	
12	0	0	0	0	550	622	512	
13	0	0	0	0	550	617	496	
14	0	0	0	0	549	612	510	
15	0	0	0	0	547	606	510	
0	0	0	0	0	544	599	510	
1	0	0	0	0	541	592	502	
2	0	0	0	0	537	584	509	
3	0	0	0	0	534	576	496	
4	0	0	0	0	531	568	496	
5	0	0	0	0	528	560	493	
6	0	0	0	0	527	551	500	
7	0	0	0	0	527	544	496	
8	0	0	0	0	525	536	499	
9	0	0	0	0	525	529	499	
10	0	0	0	0	525	523	507	
11	0	0	0	0	526	517	502	
12	0	0	0	0	526	511	501	
13	0	0	0	0	527	506	500	
14	0	0	0	0	527	501	504	
15	0	0	0	0	526	497	513	
0	0	0	0	0	524	493	509	
1	0	0	0	0	523	489	513	
2	0	0	0	0	521	485	526	
3	0	0	0	0	520	482	507	
4	0	0	0	0	520	479	520	
5	0	0	0	0	519	476	519	
6	0	0	0	0	517	473	521	
7	0	0	0	0	514	470	511	
8	0	0	0	0	512	467	517	
9	0	0	0	0	511	464	507	
10	0	0	0	0	511	461	524	
11	0	0	0	0	511	458	520	
12	0	0	0	0	510	455	508	
13	0	0	0	0	511	453	509	
14	0	0	0	0	511	451	511	
15	0	0	0	0	511	448	505	
0	0	0	0	0	512	446	510	
1	0	0	0	0	514	443	515	
2	0	0	0	0	514	440	519	
3	0	0	0	0	512	439	507	
4	0	0	0	0	511	436	508	
5	0	0	0	0	510	434	509	
6	0	0	0	0	508	432	506	
7	0	0	0	0	507	430	507	
8	0	0	0	0	505	428	511	
9	0	0	0	0	504	426	515	
10	0	0	0	0	503	423	524	
11	0	0	0	0	502	422	509	
12	0	0	0	0	502	420	512	
13	0	0	0	0	499	418	504	
14	0	0	0	0	499	416	517	
15	0	0	0	0	497	415	517	
0	0	0	0	0	496	413	516	
1	0	0	0	0	492	412	502	
2	0	0	0	0	491	411	507	
3	0	0	0	0	490	409	510	
4	0	0	0	0	489	408	520	
5	0	0	0	0	490	407	515	
6	0	0	0	0	491	406	531	
7	0	0	0	0	491	404	543	
8	0	0	0	0	492	404	545	
9	0	0	0	0	494	403	558	
10	0	0	0	0	495	401	560	
11	0	0	0	0	496	400	558	
12	0	0	0	0	496	399	542	
13	0	0	0	0	495	398	499	
14	0	0	0	0	493	396	475	
15	0	0	0	0	492	395	480	
0	0	0	0	0	490	393	493	
1	0	0	0	0	489	392	493	
2	0	0	0	0	489	390	497	
3	0	0	0	0	486	389	483	
4	0	0	0	0	484	388	501	
5	0	0	0	0	483	387	618	
6	0	0	0	0	482	385	760	
7	0	0	0	0	481	384	702	
8	0	0	0	0	480	384	547	
9	0	0	0	0	481	383	478	
10	0	0	0	0	480	382	466	
11	0	0	0	0	481	380	456	
12	0	0	0	0	480	380	471	
13	0	0	0	0	479	379	464	
14	0	0	0	0	478	379	475	
15	0	0	0	0	478	377	495	
0	0	0	0	0	477	377	487	
1	0	0	0	0	478	376	496	
2	0	0	0	0	478	376	503	
3	0	0	0	0	477	376	505	
4	0	0	0	0	476	375	513	
5	0	0	0	0	476	375	528	
6	0	0	0	0	476	374	527	
7	0	0	0	0	474	372	501	
8	0	0	0	0	473	371	508	
9	0	0	0	0	472	369	517	
10	0	0	0	0	470	368	514	
11	0	0	0	0	469	366	527	
12	0	0	0	0	469	364	523	
13	0	0	0	0	470	363	521	
14	0	0	0	0	469	360	533	
15	0	0	0	0	471	358	534	
0	0	0	0	0	472	356	544	
1	0	0	0	0	474	353	544	
2	0	0	0	0	476	351	560	
3	0	0	0	0	480	349	549	
4	0	0	0	0	483	347	548	
5	0	0	0	0	489	344	553	
6	0	0	0	0	495	342	558	
7	0	0	0	0	502	340	544	
8	0	0	0	0	510	338	541	
9	0	0	0	0	516	335	504	
10	0	0	0	0	521	333	503	
11	0	0	0	0	528	331	475	
12	0	0	0	0	532	328	476	
13	0	0	0	0	535	327	459	
14	0	0	0	0	537	325	461	
15	0	0	0	0	540	323	468	
0	0	0	0	0	540	322	482	
1	0	0	0	0	538	320	483	
2	0	0	0	0	540	319	496	
3	0	0	0	0	541	317	481	
4	0	0	0	0	541	316	497	
5	0	0	0	0	543	316	503	
6	0	0	0	0	546	316	512	
7	0	0	0	0	551	314	514	
8	0	0	0	0	556	315	514	
9	0	0	0	0	562	314	520	
10	0	0	0	0	566	315	503	
11	0	0	0	0	570	315	497	
12	0	0	0	0	573	315	514	
13	0	0	0	0	575	316	503	
14	0	0	0	0	575	317	510	
15	0	0	0	0	575	316	501	
0	0	0	0	0	574	317	509	
1	0	0	0	0	573	317	496	
2	0	0	0	0	571	317	508	
3	0	0	0	0	569	316	496	
4	0	0	0	0	567	316	492	
5	0	0	0	0	563	315	490	
6	0	0	0	0	558	315	503	
7	0	0	0	0	555	313	486	
8	0	0	0	0	552	314	489	
9	0	0	0	0	549	312	492	
10	0	0	0	0	547	311	503	
11	0	0	0	0	547	312	494	
12	0	0	0	0	548	311	497	
13	0	0	0	0	547	310	484	
14	0	0	0	0	546	310	517	
15	0	0	0	0	544	311	503	
0	0	0	0	0	545	311	505	
1	0	0	0	0	544	312	515	
2	0	0	0	0	545	312	501	
3	0	0	0	0	545	312	503	
4	0	0	0	0	545	314	511	
5	0	0	0	0	544	316	510	
6	0	0	0	0	542	319	496	
7	0	0	0	0	540	320	500	
8	0	0	0	0	538	323	510	
9	0	0	0	0	537	326	509	
10	0	0	0	0	534	328	513	
11	0	0	0	0	532	331	507	
12	0	0	0	0	529	333	500	
13	0	0	0	0	529	337	503	
14	0	0	0	0	530	338	517	
15	0	0	0	0	531	341	506	
0	0	0	0	0	534	344	515	
1	0	0	0	0	535	346	530	
2	0	0	0	0	535	348	527	
3	0	0	0	0	534	350	525	
4	0	0	0	0	532	351	540	
5	0	0	0	0	532	353	532	
6	0	0	0	0	530	355	520	
7	0	0	0	0	528	357	510	
8	0	0	0	0	526	359	534	
9	0	0	0	0	524	360	531	
10	0	0	0	0	522	362	521	
11	0	0	0	0	518	363	514	
12	0	0	0	0	515	365	523	
13	0	0	0	0	513	366	532	
14	0	0	0	0	509	368	528	
15	0	0	0	0	508	370	527	
0	0	0	0	0	506	371	539	
1	0	0	0	0	504	373	523	
2	0	0	0	0	505	375	518	
3	0	0	0	0	505	376	509	
4	0	0	0	0	506	378	513	
5	0	0	0	0	508	379	509	
6	0	0	0	0	507	381	513	
7	0	0	0	0	504	382	514	
8	0	0	0	0	501	384	516	
9	0	0	0	0	499	385	526	
10	0	0	0	0	499	387	522	
11	0	0	0	0	500	388	517	
12	0	0	0	0	499	389	543	
13	0	0	0	0	497	390	561	
14	0	0	0	0	497	391	561	
15	0	0	0	0	497	392	555	
0	0	0	0	0	496	393	527	
1	0	0	0	0	494	394	500	
2	0	0	0	0	492	395	486	
3	0	0	0	0	491	396	479	
4	0	0	0	0	492	396	475	
5	0	0	0	0	492	397	468	
6	0	0	0	0	489	398	481	
7	0	0	0	0	489	399	494	
8	0	0	0	0	487	400	484	
9	0	0	0	0	486	401	513	
10	0	0	0	0	484	401	679	
11	0	0	0	0	484	402	736	
12	0	0	0	0	483	403	621	
13	0	0	0	0	483	404	501	
14	0	0	0	0	481	405	448	
15	0	0	0	0	481	405	441	
0	0	0	0	0	480	406	452	
1	0	0	0	0	479	406	447	
2	0	0	0	0	477	407	466	
3	0	0	0	0	477	406	478	
4	0	0	0	0	477	407	475	
5	0	0	0	0	477	406	475	
6	0	0	0	0	478	406	478	
7	0	0	0	0	480	406	481	
8	0	0	0	0	479	405	506	
9	0	0	0	0	480	405	496	
10	0	0	0	0	481	403	510	
11	0	0	0	0	479	403	493	
12	0	0	0	0	477	401	504	
13	0	0	0	0	477	399	504	
14	0	0	0	0	476	397	517	
15	0	0	0	0	476	395	496	
0	0	0	0	0	476	391	507	
1	0	0	0	0	475	389	515	
2	0	0	0	0	478	386	516	
3	0	0	0	0	480	383	527	
4	0	0	0	0	480	381	529	
5	0	0	0	0	481	378	526	
6	0	0	0	0	484	375	558	
7	0	0	0	0	487	372	532	
8	0	0	0	0	492	370	544	
9	0	0	0	0	497	367	537	
10	0	0	0	0	504	365	550	
11	0	0	0	0	510	362	530	
12	0	0	0	0	518	360	526	
13	0	0	0	0	525	357	512	
14	0	0	0	0	532	355	497	
15	0	0	0	0	538	352	472	
0	0	0	0	0	543	351	455	
1	0	0	0	0	546	348	444	
2	0	0	0	0	550	345	453	
3	0	0	0	0	554	344	442	
4	0	0	0	0	553	342	455	
5	0	0	0	0	553	340	455	
6	0	0	0	0	554	339	469	
7	0	0	0	0	554	338	477	
8	0	0	0	0	554	337	483	
9	0	0	0	0	556	337	487	
10	0	0	0	0	558	337	491	
11	0	0	0	0	559	337	500	
12	0	0	0	0	561	337	504	
13	0	0	0	0	565	337	514	
14	0	0	0	0	569	338	518	
15	0	0	0	0	574	340	524	
0	0	0	0	0	576	340	528	
1	0	0	0	0	579	342	527	
2	0	0	0	0	582	343	537	
3	0	0	0	0	584	344	536	
4	0	0	0	0	586	344	526	
5	0	0	0	0	585	345	526	
6	0	0	0	0	583	345	535	
7	0	0	0	0	580	346	525	
8	0	0	0	0	575	346	533	
9	0	0	0	0	572	346	519	
10	0	0	0	0	568	346	517	
11	0	0	0	0	564	346	508	
12	0	0	0	0	562	346	505	
13	0	0	0	0	561	347	499	
14	0	0	0	0	559	347	500	
15	0	0	0	0	556	347	503	
0	0	0	0	0	553	348	496	
1	0	0	0	0	552	350	489	
2	0	0	0	0	552	350	505	
3	0	0	0	0	551	351	496	
4	0	0	0	0	551	353	491	
5	0	0	0	0	551	355	491	
6	0	0	0	0	551	357	496	
7	0	0	0	0	551	359	497	
8	0	0	0	0	551	361	513	
9	0	0	0	0	551	364	500	
10	0	0	0	0	551	367	505	
11	0	0	0	0	550	370	506	
12	0	0	0	0	548	375	513	
13	0	0	0	0	546	379	506	
14	0	0	0	0	543	383	516	
15	0	0	0	0	540	388	519	
0	0	0	0	0	537	392	519	
1	0	0	0	0	535	398	526	
2	0	0	0	0	536	403	521	
3	0	0	0	0	532	409	497	
4	0	0	0	0	531	415	497	
5	0	0	0	0	528	422	518	
6	0	0	0	0	525	428	495	
7	0	0	0	0	522	435	490	
8	0	0	0	0	521	442	505	
9	0	0	0	0	520	450	503	
10	0	0	0	0	520	457	496	
11	0	0	0	0	517	464	494	
12	0	0	0	0	515	472	496	
13	0	0	0	0	514	479	498	
14	0	0	0	0	513	486	507	
15	0	0	0	0	514	493	489	
0	0	0	0	0	513	500	496	
1	0	0	0	0	512	507	494	
2	0	0	0	0	512	514	526	
3	0	0	0	0	512	521	506	
4	0	0	0	0	511	529	515	
5	0	0	0	0	511	536	509	
6	0	0	0	0	513	542	519	
7	0	0	0	0	512	549	533	
8	0	0	0	0	511	556	518	
9	0	0	0	0	509	563	517	
10	0	0	0	0	508	569	528	
11	0	0	0	0	508	577	527	
12	0	0	0	0	507	583	536	
13	0	0	0	0	504	590	534	
14	0	0	0	0	504	597	534	
15	0	0	0	0	503	604	536	
0	0	0	0	0	501	610	547	
1	0	0	0	0	498	617	555	
2	0	0	0	0	496	624	570	
3	0	0	0	0	494	630	566	
4	0	0	0	0	492	636	562	
5	0	0	0	0	492	643	524	
6	0	0	0	0	490	649	509	
7	0	0	0	0	489	655	502	
8	0	0	0	0	488	662	489	
9	0	0	0	0	487	668	482	
10	0	0	0	0	487	674	486	
11	0	0	0	0	485	680	479	
12	0	0	0	0	484	686	503	
13	0	0	0	0	483	693	476	
14	0	0	0	0	482	697	591	
15	0	0	0	0	483	704	744	
0	0	0	0	0	483	708	712	
1	0	0	0	0	484	714	565	
2	0	0	0	0	483	719	495	
3	0	0	0	0	481	723	463	
4	0	0	0	0	479	728	468	
5	0	0	0	0	476	732	470	
6	0	0	0	0	474	736	466	
7	0	0	0	0	475	740	483	
8	0	0	0	0	476	743	493	
9	0	0	0	0	478	747	475	
10	0	0	0	0	478	751	502	
11	0	0	0	0	479	754	503	
12	0	0	0	0	480	756	496	
13	0	0	0	0	481	759	512	
14	0	0	0	0	481	761	523	
15	0	0	0	0	482	764	518	
0	0	0	0	0	481	766	521	
1	0	0	0	0	481	767	513	
2	0	0	0	0	481	768	516	
3	0	0	0	0	480	769	527	
4	0	0	0	0	479	769	524	
5	0	0	0	0	477	770	521	
6	0	0	0	0	476	769	521	
7	0	0	0	0	475	769	512	
8	0	0	0	0	474	769	521	
9	0	0	0	0	473	768	528	
10	0	0	0	0	473	766	539	
11	0	0	0	0	475	766	532	
12	0	0	0	0	479	764	532	
13	0	0	0	0	482	763	536	
14	0	0	0	0	487	761	537	
15	0	0	0	0	494	760	528	
0	0	0	0	0	502	758	543	
1	0	0	0	0	509	757	524	
2	0	0	0	0	516	755	508	
3	0	0	0	0	524	753	481	
4	0	0	0	0	531	750	472	
5	0	0	0	0	538	748	459	
6	0	0	0	0	543	747	457	
7	0	0	0	0	546	745	461	
8	0	0	0	0	547	743	463	
9	0	0	0	0	550	742	476	
10	0	0	0	0	548	740	491	
11	0	0	0	0	548	738	480	
12	0	0	0	0	548	736	491	
13	0	0	0	0	548	734	499	
14	0	0	0	0	549	732	493	
15	0	0	0	0	549	730	508	
0	0	0	0	0	550	728	509	
1	0	0	0	0	552	726	514	
2	0	0	0	0	556	724	500	
3	0	0	0	0	561	721	510	
4	0	0	0	0	566	719	514	
5	0	0	0	0	568	717	511	
6	0	0	0	0	569	715	523	
7	0	0	0	0	569	711	513	
8	0	0	0	0	568	708	526	
9	0	0	0	0	568	704	510	
10	0	0	0	0	567	699	515	
11	0	0	0	0	564	694	514	
12	0	0	0	0	561	688	502	
13	0	0	0	0	557	680	510	
14	0	0	0	0	554	673	518	
15	0	0	0	0	552	664	512	
0	0	0	0	0	550	656	503	
1	0	0	0	0	547	647	501	
2	0	0	0	0	545	638	507	
3	0	0	0	0	544	630	494	
4	0	0	0	0	543	621	498	
5	0	0	0	0	543	613	498	
6	0	0	0	0	543	605	503	
7	0	0	0	0	543	597	498	
8	0	0	0	0	543	590	487	
9	0	0	0	0	542	583	494	
10	0	0	0	0	541	577	494	
11	0	0	0	0	541	572	499	
12	0	0	0	0	540	566	504	
13	0	0	0	0	538	561	494	
14	0	0	0	0	536	557	516	
15	0	0	0	0	535	553	498	
0	0	0	0	0	533	548	481	
1	0	0	0	0	531	544	508	
2	0	0	0	0	529	541	506	
3	0	0	0	0	527	538	492	
4	0	0	0	0	525	535	490	
5	0	0	0	0	521	532	511	
6	0	0	0	0	519	529	497	
7	0	0	0	0	516	527	492	
8	0	0	0	0	513	524	503	
9	0	0	0	0	512	521	503	
10	0	0	0	0	510	519	491	
11	0	0	0	0	509	516	500	
12	0	0	0	0	508	514	495	
13	0	0	0	0	509	511	507	
14	0	0	0	0	509	508	543	
15	0	0	0	0	509	505	504	
0	0	0	0	0	511	503	527	
1	0	0	0	0	511	500	521	
2	0	0	0	0	508	497	519	
3	0	0	0	0	505	494	516	
4	0	0	0	0	503	491	519	
5	0	0	0	0	502	489	512	
6	0	0	0	0	500	486	513	
7	0	0	0	0	498	483	534	
8	0	0	0	0	496	481	537	
9	0	0	0	0	496	478	526	
10	0	0	0	0	494	475	540	
11	0	0	0	0	491	472	562	
12	0	0	0	0	490	470	559	
13	0	0	0	0	488	467	528	
14	0	0	0	0	490	464	504	
15	0	0	0	0	492	461	479	
0	0	0	0	0	492	458	480	
1	0	0	0	0	492	455	485	
2	0	0	0	0	491	451	482	
3	0	0	0	0	491	448	496	
4	0	0	0	0	490	445	489	
5	0	0	0	0	491	442	476	
6	0	0	0	0	488	440	511	
7	0	0	0	0	487	437	638	
8	0	0	0	0	484	434	753	
9	0	0	0	0	484	431	659	
10	0	0	0	0	484	428	522	
11	0	0	0	0	484	423	468	
12	0	0	0	0	483	420	461	
13	0	0	0	0	482	416	461	
14	0	0	0	0	481	412	461	
15	0	0	0	0	480	408	460	
0	0	0	0	0	480	404	471	
1	0	0	0	0	481	399	469	
2	0	0	0	0	481	396	474	
3	0	0	0	0	480	392	481	
4	0	0	0	0	478	388	488	
5	0	0	0	0	477	384	498	
6	0	0	0	0	476	380	497	
7	0	0	0	0	475	377	501	
8	0	0	0	0	473	373	500	
9	0	0	0	0	471	369	514	
10	0	0	0	0	470	365	516	
11	0	0	0	0	471	362	528	
12	0	0	0	0	471	358	532	
13	0	0	0	0	473	355	539	
14	0	0	0	0	475	352	530	
15	0	0	0	0	477	349	531	
0	0	0	0	0	478	346	532	
1	0	0	0	0	479	343	537	
2	0	0	0	0	479	341	535	
3	0	0	0	0	480	338	548	
4	0	0	0	0	484	336	551	
5	0	0	0	0	488	333	557	
6	0	0	0	0	492	330	556	
7	0	0	0	0	498	326	552	
8	0	0	0	0	505	323	560	
9	0	0	0	0	513	320	548	
10	0	0	0	0	519	318	534	
11	0	0	0	0	526	316	508	
12	0	0	0	0	531	314	492	
13	0	0	0	0	536	312	488	
14	0	0	0	0	540	311	480	
15	0	0	0	0	543	310	471	
0	0	0	0	0	547	309	459	
1	0	0	0	0	550	309	472	
2	0	0	0	0	554	311	471	
3	0	0	0	0	558	312	472	
4	0	0	0	0	561	314	484	
5	0	0	0	0	564	316	494	
6	0	0	0	0	566	318	492	
7	0	0	0	0	568	320	485	
8	0	0	0	0	572	322	492	
9	0	0	0	0	574	324	506	
10	0	0	0	0	577	326	500	
11	0	0	0	0	582	327	513	
12	0	0	0	0	584	328	509	
13	0	0	0	0	588	329	508	
14	0	0	0	0	590	330	510	
15	0	0	0	0	591	331	529	
0	0	0	0	0	590	332	523	
1	0	0	0	0	588	334	518	
2	0	0	0	0	585	338	510	
3	0	0	0	0	580	343	507	
4	0	0	0	0	577	348	517	
5	0	0	0	0	573	353	512	
6	0	0	0	0	566	359	517	
7	0	0	0	0	559	365	495	
8	0	0	0	0	554	371	502	
9	0	0	0	0	551	377	507	
10	0	0	0	0	547	382	496	
11	0	0	0	0	544	387	496	
