# OpenSignals Text File Format. Version 1
# {"84:BA:20:AE:BC:92": {"position": 0, "device": "bitalino_rev", "device name": "84:BA:20:AE:BC:92", "device connection": "BTH84:BA:20:AE:BC:92", "sampling rate": 100, "resolution": [4, 1, 1, 1, 1, 10, 10, 10], "firmware version": 1282, "comments": "", "keywords": "", "mode": 0, "sync interval": 2, "date": "2025-10-22", "time": "11:11:56.202", "channels": [2, 3, 4], "sensor": ["RAW", "RESPBIT", "ECGBIT"], "label": ["A2", "A3", "A4"], "column": ["nSeq", "I1", "I2", "O1", "O2", "A2", "A3", "A4"], "special": [{}, {}, {}], "digital IO": [0, 0, 1, 1], "convertedValues": 0}}
# EndOfHeader
0	0	0	0	0	558	191	517	
1	0	0	0	0	554	191	509	
2	0	0	0	0	549	190	507	
3	0	0	0	0	545	190	496	
4	0	0	0	0	541	191	501	
5	0	0	0	0	537	191	505	
6	0	0	0	0	535	190	497	
7	0	0	0	0	532	191	500	
8	0	0	0	0	531	191	507	
9	0	0	0	0	531	190	502	
10	0	0	0	0	531	189	507	
11	0	0	0	0	531	189	525	
12	0	0	0	0	530	188	537	
13	0	0	0	0	531	189	531	
14	0	0	0	0	529	187	544	
15	0	0	0	0	527	187	557	
0	0	0	0	0	524	187	555	
1	0	0	0	0	521	185	515	
2	0	0	0	0	519	186	501	
3	0	0	0	0	517	184	489	
4	0	0	0	0	515	185	473	
5	0	0	0	0	514	186	474	
6	0	0	0	0	512	185	483	
7	0	0	0	0	511	186	476	
8	0	0	0	0	508	188	475	
9	0	0	0	0	507	188	533	
10	0	0	0	0	506	190	688	
11	0	0	0	0	507	191	704	
12	0	0	0	0	508	194	526	
13	0	0	0	0	510	195	444	
14	0	0	0	0	511	196	433	
15	0	0	0	0	512	198	460	
0	0	0	0	0	512	198	464	
1	0	0	0	0	511	199	471	
2	0	0	0	0	510	200	476	
3	0	0	0	0	507	200	468	
4	0	0	0	0	507	203	472	
5	0	0	0	0	505	203	475	
6	0	0	0	0	504	204	478	
7	0	0	0	0	503	204	479	
8	0	0	0	0	501	206	487	
9	0	0	0	0	499	206	502	
10	0	0	0	0	499	207	506	
11	0	0	0	0	500	207	505	
12	0	0	0	0	501	209	516	
13	0	0	0	0	501	208	512	
14	0	0	0	0	501	209	528	
15	0	0	0	0	503	210	520	
0	0	0	0	0	504	212	523	
1	0	0	0	0	507	211	516	
2	0	0	0	0	508	212	521	
3	0	0	0	0	513	214	501	
4	0	0	0	0	519	216	513	
5	0	0	0	0	528	216	498	
6	0	0	0	0	538	219	505	
7	0	0	0	0	549	220	499	
8	0	0	0	0	559	221	492	
9	0	0	0	0	568	221	491	
10	0	0	0	0	579	222	501	
11	0	0	0	0	587	223	493	
12	0	0	0	0	590	224	496	
13	0	0	0	0	592	224	505	
14	0	0	0	0	591	226	511	
15	0	0	0	0	590	225	495	
0	0	0	0	0	588	227	519	
1	0	0	0	0	586	230	510	
2	0	0	0	0	584	231	520	
3	0	0	0	0	583	235	529	
4	0	0	0	0	581	238	529	
5	0	0	0	0	581	243	528	
6	0	0	0	0	580	250	523	
7	0	0	0	0	580	255	539	
8	0	0	0	0	580	264	536	
9	0	0	0	0	577	272	522	
10	0	0	0	0	577	279	517	
11	0	0	0	0	578	287	522	
12	0	0	0	0	577	297	518	
13	0	0	0	0	575	304	496	
14	0	0	0	0	573	313	508	
15	0	0	0	0	569	322	506	
0	0	0	0	0	567	331	496	
1	0	0	0	0	563	340	506	
2	0	0	0	0	560	348	499	
3	0	0	0	0	555	357	498	
4	0	0	0	0	552	366	508	
5	0	0	0	0	547	375	496	
6	0	0	0	0	543	384	502	
7	0	0	0	0	540	394	502	
8	0	0	0	0	539	404	500	
9	0	0	0	0	537	414	485	
10	0	0	0	0	536	423	499	
11	0	0	0	0	536	433	492	
12	0	0	0	0	535	444	492	
13	0	0	0	0	535	453	498	
14	0	0	0	0	536	463	508	
15	0	0	0	0	535	473	507	
0	0	0	0	0	532	483	511	
1	0	0	0	0	530	493	506	
2	0	0	0	0	529	503	529	
3	0	0	0	0	527	513	537	
4	0	0	0	0	528	523	534	
5	0	0	0	0	528	533	558	
6	0	0	0	0	528	543	563	
7	0	0	0	0	527	553	547	
8	0	0	0	0	525	563	529	
9	0	0	0	0	523	573	498	
10	0	0	0	0	521	583	480	
11	0	0	0	0	519	592	473	
12	0	0	0	0	518	602	476	
13	0	0	0	0	516	611	464	
14	0	0	0	0	515	622	484	
15	0	0	0	0	514	632	472	
0	0	0	0	0	514	641	532	
1	0	0	0	0	513	650	674	
2	0	0	0	0	512	660	704	
3	0	0	0	0	512	669	536	
4	0	0	0	0	513	678	467	
5	0	0	0	0	512	687	433	
6	0	0	0	0	510	695	441	
7	0	0	0	0	508	702	454	
8	0	0	0	0	507	711	467	
9	0	0	0	0	505	719	467	
10	0	0	0	0	504	727	487	
11	0	0	0	0	504	736	493	
12	0	0	0	0	504	743	500	
13	0	0	0	0	503	749	499	
14	0	0	0	0	503	755	507	
15	0	0	0	0	501	761	510	
0	0	0	0	0	500	768	510	
1	0	0	0	0	498	774	514	
2	0	0	0	0	496	780	521	
3	0	0	0	0	495	785	528	
4	0	0	0	0	496	790	532	
5	0	0	0	0	495	795	521	
6	0	0	0	0	496	799	532	
7	0	0	0	0	496	803	525	
8	0	0	0	0	497	806	534	
9	0	0	0	0	500	809	519	
10	0	0	0	0	507	812	528	
11	0	0	0	0	514	815	522	
12	0	0	0	0	521	818	515	
13	0	0	0	0	529	821	491	
14	0	0	0	0	540	824	501	
15	0	0	0	0	551	827	496	
0	0	0	0	0	561	830	504	
1	0	0	0	0	571	832	497	
2	0	0	0	0	579	835	495	
3	0	0	0	0	585	837	519	
4	0	0	0	0	591	839	511	
5	0	0	0	0	595	842	516	
6	0	0	0	0	598	844	512	
7	0	0	0	0	598	847	517	
8	0	0	0	0	597	849	516	
9	0	0	0	0	594	852	510	
10	0	0	0	0	590	854	527	
11	0	0	0	0	584	857	526	
12	0	0	0	0	580	859	524	
13	0	0	0	0	575	862	524	
14	0	0	0	0	573	864	527	
15	0	0	0	0	571	866	519	
0	0	0	0	0	569	867	511	
1	0	0	0	0	567	869	516	
2	0	0	0	0	566	870	513	
3	0	0	0	0	564	870	516	
4	0	0	0	0	561	871	507	
5	0	0	0	0	560	871	509	
6	0	0	0	0	558	871	515	
7	0	0	0	0	557	870	497	
8	0	0	0	0	555	870	502	
9	0	0	0	0	551	869	495	
10	0	0	0	0	549	867	495	
11	0	0	0	0	546	865	488	
12	0	0	0	0	544	863	501	
13	0	0	0	0	541	861	496	
14	0	0	0	0	540	857	491	
15	0	0	0	0	539	855	503	
0	0	0	0	0	539	852	500	
1	0	0	0	0	538	849	515	
2	0	0	0	0	536	846	521	
3	0	0	0	0	535	842	528	
4	0	0	0	0	534	838	547	
5	0	0	0	0	534	834	538	
6	0	0	0	0	532	830	533	
7	0	0	0	0	532	825	500	
8	0	0	0	0	531	821	475	
9	0	0	0	0	530	816	459	
10	0	0	0	0	530	812	470	
11	0	0	0	0	529	808	465	
12	0	0	0	0	527	804	470	
13	0	0	0	0	526	799	468	
14	0	0	0	0	525	796	464	
15	0	0	0	0	523	792	557	
0	0	0	0	0	521	789	709	
1	0	0	0	0	519	785	673	
2	0	0	0	0	517	782	527	
3	0	0	0	0	515	778	465	
4	0	0	0	0	511	773	440	
5	0	0	0	0	509	768	440	
6	0	0	0	0	508	763	451	
7	0	0	0	0	507	758	451	
8	0	0	0	0	507	753	464	
9	0	0	0	0	506	748	464	
10	0	0	0	0	505	742	479	
11	0	0	0	0	504	736	468	
12	0	0	0	0	503	729	486	
13	0	0	0	0	500	721	483	
14	0	0	0	0	497	714	503	
15	0	0	0	0	495	707	496	
0	0	0	0	0	495	700	504	
1	0	0	0	0	496	693	498	
2	0	0	0	0	497	687	504	
3	0	0	0	0	498	679	512	
4	0	0	0	0	500	672	531	
5	0	0	0	0	500	664	524	
6	0	0	0	0	499	657	525	
7	0	0	0	0	501	650	524	
8	0	0	0	0	504	642	529	
9	0	0	0	0	507	633	514	
10	0	0	0	0	512	626	519	
11	0	0	0	0	519	617	519	
12	0	0	0	0	527	610	510	
13	0	0	0	0	538	602	507	
14	0	0	0	0	548	594	513	
15	0	0	0	0	558	587	504	
0	0	0	0	0	568	578	513	
1	0	0	0	0	575	571	500	
2	0	0	0	0	579	563	507	
3	0	0	0	0	582	555	497	
4	0	0	0	0	586	548	503	
5	0	0	0	0	588	540	497	
6	0	0	0	0	587	534	505	
7	0	0	0	0	585	527	499	
8	0	0	0	0	583	519	515	
9	0	0	0	0	580	513	505	
10	0	0	0	0	575	507	525	
11	0	0	0	0	573	500	528	
12	0	0	0	0	569	494	531	
13	0	0	0	0	567	488	514	
14	0	0	0	0	566	482	535	
15	0	0	0	0	564	476	519	
0	0	0	0	0	562	470	528	
1	0	0	0	0	562	464	517	
2	0	0	0	0	560	458	509	
3	0	0	0	0	558	451	507	
4	0	0	0	0	555	446	507	
5	0	0	0	0	552	439	490	
6	0	0	0	0	550	433	502	
7	0	0	0	0	546	427	502	
8	0	0	0	0	543	420	499	
9	0	0	0	0	541	414	497	
10	0	0	0	0	540	407	496	
11	0	0	0	0	537	401	497	
12	0	0	0	0	536	395	514	
13	0	0	0	0	534	387	500	
14	0	0	0	0	532	381	496	
15	0	0	0	0	530	373	499	
0	0	0	0	0	529	366	504	
1	0	0	0	0	527	360	511	
2	0	0	0	0	525	352	532	
3	0	0	0	0	523	346	532	
4	0	0	0	0	523	339	556	
5	0	0	0	0	520	334	541	
6	0	0	0	0	519	328	539	
7	0	0	0	0	517	323	529	
8	0	0	0	0	515	317	498	
9	0	0	0	0	513	313	462	
10	0	0	0	0	513	308	486	
11	0	0	0	0	511	305	480	
12	0	0	0	0	511	301	481	
13	0	0	0	0	510	299	468	
14	0	0	0	0	509	295	467	
15	0	0	0	0	509	293	509	
0	0	0	0	0	508	292	667	
1	0	0	0	0	506	291	729	
2	0	0	0	0	502	290	582	
3	0	0	0	0	499	291	469	
4	0	0	0	0	498	289	448	
5	0	0	0	0	496	287	448	
6	0	0	0	0	495	287	469	
7	0	0	0	0	494	284	460	
8	0	0	0	0	493	283	477	
9	0	0	0	0	493	281	476	
10	0	0	0	0	492	281	492	
11	0	0	0	0	492	279	486	
12	0	0	0	0	491	278	491	
13	0	0	0	0	489	277	481	
14	0	0	0	0	487	276	517	
15	0	0	0	0	487	275	510	
0	0	0	0	0	487	274	506	
1	0	0	0	0	487	272	516	
2	0	0	0	0	486	270	521	
3	0	0	0	0	487	267	521	
4	0	0	0	0	487	264	525	
5	0	0	0	0	487	262	504	
6	0	0	0	0	489	260	515	
7	0	0	0	0	489	256	533	
8	0	0	0	0	492	251	532	
9	0	0	0	0	495	245	511	
10	0	0	0	0	502	240	518	
11	0	0	0	0	511	235	505	
12	0	0	0	0	521	229	504	
13	0	0	0	0	530	222	504	
14	0	0	0	0	541	215	516	
15	0	0	0	0	553	209	502	
0	0	0	0	0	564	202	508	
1	0	0	0	0	573	195	501	
2	0	0	0	0	579	189	507	
3	0	0	0	0	585	181	505	
4	0	0	0	0	588	176	502	
5	0	0	0	0	588	169	500	
6	0	0	0	0	584	165	506	
7	0	0	0	0	582	160	493	
8	0	0	0	0	579	154	515	
9	0	0	0	0	576	152	510	
10	0	0	0	0	571	145	518	
11	0	0	0	0	567	143	528	
12	0	0	0	0	563	140	536	
13	0	0	0	0	559	137	524	
14	0	0	0	0	558	135	541	
15	0	0	0	0	556	131	534	
0	0	0	0	0	555	130	539	
1	0	0	0	0	554	127	518	
2	0	0	0	0	552	125	524	
3	0	0	0	0	552	123	531	
4	0	0	0	0	551	122	527	
5	0	0	0	0	549	120	514	
6	0	0	0	0	546	117	540	
7	0	0	0	0	542	118	514	
8	0	0	0	0	537	115	524	
9	0	0	0	0	534	116	494	
10	0	0	0	0	529	115	516	
11	0	0	0	0	526	116	498	
12	0	0	0	0	522	114	522	
13	0	0	0	0	519	117	501	
14	0	0	0	0	515	116	515	
15	0	0	0	0	512	116	514	
0	0	0	0	0	511	119	516	
1	0	0	0	0	508	118	505	
2	0	0	0	0	508	121	503	
3	0	0	0	0	508	122	510	
4	0	0	0	0	510	123	524	
5	0	0	0	0	510	125	513	
6	0	0	0	0	511	125	510	
7	0	0	0	0	511	127	519	
8	0	0	0	0	508	128	519	
9	0	0	0	0	507	131	513	
10	0	0	0	0	505	131	534	
11	0	0	0	0	503	135	532	
12	0	0	0	0	500	136	553	
13	0	0	0	0	499	138	546	
14	0	0	0	0	498	140	566	
15	0	0	0	0	496	142	543	
0	0	0	0	0	493	145	552	
1	0	0	0	0	492	146	506	
2	0	0	0	0	491	150	483	
3	0	0	0	0	489	151	467	
4	0	0	0	0	487	155	462	
5	0	0	0	0	486	157	463	
6	0	0	0	0	484	160	473	
7	0	0	0	0	483	164	453	
8	0	0	0	0	483	167	446	
9	0	0	0	0	482	172	512	
10	0	0	0	0	480	174	646	
11	0	0	0	0	479	179	621	
12	0	0	0	0	480	181	440	
13	0	0	0	0	480	185	377	
14	0	0	0	0	479	187	373	
15	0	0	0	0	479	191	401	
0	0	0	0	0	480	192	407	
1	0	0	0	0	480	196	417	
2	0	0	0	0	479	199	436	
3	0	0	0	0	478	204	444	
4	0	0	0	0	476	209	458	
5	0	0	0	0	474	214	461	
6	0	0	0	0	474	219	466	
7	0	0	0	0	474	224	475	
8	0	0	0	0	473	231	494	
9	0	0	0	0	472	238	486	
10	0	0	0	0	471	246	508	
11	0	0	0	0	471	255	498	
12	0	0	0	0	469	264	512	
13	0	0	0	0	468	274	515	
14	0	0	0	0	466	285	536	
15	0	0	0	0	466	297	529	
0	0	0	0	0	467	309	536	
1	0	0	0	0	466	323	540	
2	0	0	0	0	467	335	552	
3	0	0	0	0	470	348	528	
4	0	0	0	0	475	361	547	
5	0	0	0	0	481	375	534	
6	0	0	0	0	489	389	525	
7	0	0	0	0	498	403	530	
8	0	0	0	0	508	418	527	
9	0	0	0	0	518	432	514	
10	0	0	0	0	528	448	523	
11	0	0	0	0	536	463	530	
12	0	0	0	0	543	478	535	
13	0	0	0	0	548	493	524	
14	0	0	0	0	553	508	534	
15	0	0	0	0	557	522	527	
0	0	0	0	0	559	537	536	
1	0	0	0	0	561	551	542	
2	0	0	0	0	563	564	553	
3	0	0	0	0	563	578	543	
4	0	0	0	0	563	591	555	
5	0	0	0	0	560	604	548	
6	0	0	0	0	559	615	563	
7	0	0	0	0	556	627	556	
8	0	0	0	0	557	638	566	
9	0	0	0	0	558	648	551	
10	0	0	0	0	558	659	558	
11	0	0	0	0	555	669	543	
12	0	0	0	0	553	679	541	
13	0	0	0	0	551	688	536	
14	0	0	0	0	548	696	528	
15	0	0	0	0	544	704	524	
0	0	0	0	0	541	712	529	
1	0	0	0	0	537	719	510	
2	0	0	0	0	534	726	519	
3	0	0	0	0	532	732	507	
4	0	0	0	0	531	737	511	
5	0	0	0	0	531	742	505	
6	0	0	0	0	532	747	524	
7	0	0	0	0	533	752	512	
8	0	0	0	0	535	756	525	
9	0	0	0	0	539	760	519	
10	0	0	0	0	545	765	518	
11	0	0	0	0	552	769	507	
12	0	0	0	0	563	773	530	
13	0	0	0	0	578	777	520	
14	0	0	0	0	595	781	526	
15	0	0	0	0	619	785	525	
0	0	0	0	0	645	790	536	
1	0	0	0	0	675	794	527	
2	0	0	0	0	705	798	532	
3	0	0	0	0	735	802	532	
4	0	0	0	0	765	807	552	
5	0	0	0	0	788	811	543	
6	0	0	0	0	805	814	555	
7	0	0	0	0	816	817	577	
8	0	0	0	0	820	821	572	
9	0	0	0	0	817	825	539	
10	0	0	0	0	809	829	529	
11	0	0	0	0	797	832	492	
12	0	0	0	0	784	836	496	
13	0	0	0	0	768	840	489	
14	0	0	0	0	749	844	504	
15	0	0	0	0	731	847	485	
0	0	0	0	0	715	851	493	
1	0	0	0	0	699	854	511	
2	0	0	0	0	685	858	663	
3	0	0	0	0	672	861	741	
4	0	0	0	0	661	863	620	
5	0	0	0	0	652	866	508	
6	0	0	0	0	645	869	476	
7	0	0	0	0	637	871	450	
8	0	0	0	0	633	873	456	
9	0	0	0	0	630	875	462	
10	0	0	0	0	630	877	472	
11	0	0	0	0	628	879	476	
12	0	0	0	0	630	880	487	
13	0	0	0	0	630	881	490	
14	0	0	0	0	628	880	506	
15	0	0	0	0	628	878	494	
0	0	0	0	0	629	877	510	
1	0	0	0	0	628	875	496	
2	0	0	0	0	624	874	525	
3	0	0	0	0	620	872	504	
4	0	0	0	0	615	870	516	
5	0	0	0	0	608	867	513	
6	0	0	0	0	602	864	527	
7	0	0	0	0	594	860	519	
8	0	0	0	0	587	857	535	
9	0	0	0	0	579	852	513	
10	0	0	0	0	573	847	536	
11	0	0	0	0	568	841	512	
12	0	0	0	0	563	835	523	
13	0	0	0	0	562	828	501	
14	0	0	0	0	564	822	512	
15	0	0	0	0	568	815	489	
0	0	0	0	0	574	808	487	
1	0	0	0	0	578	801	489	
2	0	0	0	0	582	794	502	
3	0	0	0	0	585	788	493	
4	0	0	0	0	588	781	504	
5	0	0	0	0	592	774	499	
6	0	0	0	0	595	767	508	
7	0	0	0	0	598	760	500	
8	0	0	0	0	600	753	511	
9	0	0	0	0	600	747	501	
10	0	0	0	0	601	740	511	
11	0	0	0	0	601	734	504	
12	0	0	0	0	601	728	517	
13	0	0	0	0	601	722	512	
14	0	0	0	0	600	717	530	
15	0	0	0	0	599	711	516	
0	0	0	0	0	598	707	519	
1	0	0	0	0	598	702	511	
2	0	0	0	0	598	697	521	
3	0	0	0	0	595	692	502	
4	0	0	0	0	592	687	517	
5	0	0	0	0	591	682	507	
6	0	0	0	0	591	676	506	
7	0	0	0	0	591	670	494	
8	0	0	0	0	593	665	508	
9	0	0	0	0	595	660	489	
10	0	0	0	0	598	654	500	
11	0	0	0	0	602	649	488	
12	0	0	0	0	606	643	499	
13	0	0	0	0	612	638	478	
14	0	0	0	0	615	632	501	
15	0	0	0	0	620	627	489	
0	0	0	0	0	624	622	499	
1	0	0	0	0	628	616	495	
2	0	0	0	0	632	612	509	
3	0	0	0	0	633	607	495	
4	0	0	0	0	636	602	512	
5	0	0	0	0	637	597	524	
6	0	0	0	0	637	592	527	
7	0	0	0	0	637	588	533	
8	0	0	0	0	635	584	554	
9	0	0	0	0	633	580	540	
10	0	0	0	0	630	576	534	
11	0	0	0	0	626	572	496	
12	0	0	0	0	622	568	478	
13	0	0	0	0	618	565	453	
14	0	0	0	0	614	562	465	
15	0	0	0	0	611	559	467	
0	0	0	0	0	608	557	477	
1	0	0	0	0	605	555	465	
2	0	0	0	0	601	553	469	
3	0	0	0	0	597	551	548	
4	0	0	0	0	591	550	717	
5	0	0	0	0	583	549	701	
6	0	0	0	0	574	547	532	
7	0	0	0	0	564	544	457	
8	0	0	0	0	555	541	452	
9	0	0	0	0	542	538	457	
10	0	0	0	0	527	535	473	
11	0	0	0	0	515	531	473	
12	0	0	0	0	503	527	478	
13	0	0	0	0	491	524	483	
14	0	0	0	0	480	520	504	
15	0	0	0	0	469	517	492	
0	0	0	0	0	460	513	511	
1	0	0	0	0	452	509	499	
2	0	0	0	0	445	504	505	
3	0	0	0	0	439	500	500	
4	0	0	0	0	433	496	522	
5	0	0	0	0	430	492	507	
6	0	0	0	0	428	487	520	
7	0	0	0	0	425	484	516	
8	0	0	0	0	422	480	530	
9	0	0	0	0	418	477	522	
10	0	0	0	0	415	474	530	
11	0	0	0	0	415	471	520	
12	0	0	0	0	414	467	535	
13	0	0	0	0	413	465	512	
14	0	0	0	0	415	462	526	
15	0	0	0	0	417	459	513	
0	0	0	0	0	420	456	511	
1	0	0	0	0	423	454	500	
2	0	0	0	0	430	451	512	
3	0	0	0	0	439	449	499	
4	0	0	0	0	446	446	501	
5	0	0	0	0	453	444	499	
6	0	0	0	0	462	442	510	
7	0	0	0	0	471	439	490	
8	0	0	0	0	479	436	502	
9	0	0	0	0	486	435	487	
10	0	0	0	0	494	432	511	
11	0	0	0	0	499	430	491	
12	0	0	0	0	507	428	516	
13	0	0	0	0	514	427	500	
14	0	0	0	0	519	425	526	
15	0	0	0	0	522	424	505	
0	0	0	0	0	526	423	523	
1	0	0	0	0	526	422	513	
2	0	0	0	0	527	421	528	
3	0	0	0	0	526	419	507	
4	0	0	0	0	524	417	526	
5	0	0	0	0	519	415	510	
6	0	0	0	0	514	413	512	
7	0	0	0	0	505	411	505	
8	0	0	0	0	499	408	510	
9	0	0	0	0	490	405	495	
10	0	0	0	0	480	400	503	
11	0	0	0	0	472	393	492	
12	0	0	0	0	465	385	510	
13	0	0	0	0	461	376	497	
14	0	0	0	0	458	366	508	
15	0	0	0	0	455	355	489	
0	0	0	0	0	452	345	507	
1	0	0	0	0	449	335	496	
2	0	0	0	0	444	325	508	
3	0	0	0	0	440	316	488	
4	0	0	0	0	436	307	503	
5	0	0	0	0	431	299	500	
6	0	0	0	0	427	290	517	
7	0	0	0	0	423	283	502	
8	0	0	0	0	421	275	511	
9	0	0	0	0	418	268	499	
10	0	0	0	0	416	261	519	
11	0	0	0	0	415	254	503	
12	0	0	0	0	414	248	527	
13	0	0	0	0	411	242	516	
14	0	0	0	0	408	236	532	
15	0	0	0	0	405	229	518	
0	0	0	0	0	402	223	540	
1	0	0	0	0	397	216	536	
2	0	0	0	0	391	211	553	
3	0	0	0	0	387	207	564	
4	0	0	0	0	383	202	559	
5	0	0	0	0	378	199	540	
6	0	0	0	0	374	196	535	
7	0	0	0	0	369	194	483	
8	0	0	0	0	363	191	476	
9	0	0	0	0	357	189	465	
10	0	0	0	0	349	188	487	
11	0	0	0	0	339	185	460	
12	0	0	0	0	325	184	493	
13	0	0	0	0	306	182	468	
14	0	0	0	0	285	181	531	
15	0	0	0	0	262	180	667	
0	0	0	0	0	237	178	738	
1	0	0	0	0	214	177	543	
2	0	0	0	0	192	175	468	
3	0	0	0	0	175	174	421	
4	0	0	0	0	165	173	460	
5	0	0	0	0	160	172	467	
6	0	0	0	0	163	172	480	
7	0	0	0	0	171	172	465	
8	0	0	0	0	184	171	490	
9	0	0	0	0	201	172	476	
10	0	0	0	0	224	172	496	
11	0	0	0	0	249	171	481	
12	0	0	0	0	276	171	504	
13	0	0	0	0	303	171	490	
14	0	0	0	0	327	170	516	
15	0	0	0	0	353	170	499	
0	0	0	0	0	377	170	519	
1	0	0	0	0	401	170	498	
2	0	0	0	0	422	171	520	
3	0	0	0	0	440	171	507	
4	0	0	0	0	455	172	522	
5	0	0	0	0	467	172	501	
6	0	0	0	0	476	174	528	
7	0	0	0	0	483	174	510	
8	0	0	0	0	489	174	521	
9	0	0	0	0	495	175	511	
10	0	0	0	0	500	175	519	
11	0	0	0	0	506	177	507	
12	0	0	0	0	512	179	519	
13	0	0	0	0	517	180	503	
14	0	0	0	0	524	183	518	
15	0	0	0	0	531	184	495	
0	0	0	0	0	536	188	514	
1	0	0	0	0	539	189	496	
2	0	0	0	0	542	192	506	
3	0	0	0	0	544	194	495	
4	0	0	0	0	545	196	509	
5	0	0	0	0	546	199	488	
6	0	0	0	0	546	202	503	
7	0	0	0	0	543	205	492	
8	0	0	0	0	541	207	521	
9	0	0	0	0	539	211	511	
10	0	0	0	0	539	215	524	
11	0	0	0	0	538	217	514	
12	0	0	0	0	538	220	537	
13	0	0	0	0	539	224	522	
14	0	0	0	0	542	227	537	
15	0	0	0	0	543	230	517	
0	0	0	0	0	546	232	531	
1	0	0	0	0	549	234	513	
2	0	0	0	0	555	237	524	
3	0	0	0	0	559	239	501	
4	0	0	0	0	562	240	513	
5	0	0	0	0	565	241	504	
6	0	0	0	0	567	243	520	
7	0	0	0	0	568	244	503	
8	0	0	0	0	571	244	512	
9	0	0	0	0	573	244	497	
10	0	0	0	0	575	244	515	
11	0	0	0	0	576	247	495	
12	0	0	0	0	576	248	512	
13	0	0	0	0	575	250	500	
14	0	0	0	0	573	255	508	
15	0	0	0	0	570	258	505	
0	0	0	0	0	567	264	508	
1	0	0	0	0	563	270	495	
2	0	0	0	0	559	277	517	
3	0	0	0	0	554	286	503	
4	0	0	0	0	548	295	519	
5	0	0	0	0	542	305	498	
6	0	0	0	0	539	316	508	
7	0	0	0	0	536	328	496	
8	0	0	0	0	531	340	523	
9	0	0	0	0	530	351	503	
10	0	0	0	0	529	364	518	
11	0	0	0	0	529	376	482	
12	0	0	0	0	530	388	516	
13	0	0	0	0	529	399	500	
14	0	0	0	0	531	411	514	
15	0	0	0	0	534	422	493	
0	0	0	0	0	537	434	514	
1	0	0	0	0	540	445	493	
2	0	0	0	0	544	455	522	
3	0	0	0	0	550	467	504	
4	0	0	0	0	555	478	506	
5	0	0	0	0	561	489	502	
6	0	0	0	0	566	500	518	
7	0	0	0	0	569	511	504	
8	0	0	0	0	571	522	520	
9	0	0	0	0	574	533	501	
10	0	0	0	0	576	545	525	
11	0	0	0	0	577	556	519	
12	0	0	0	0	578	567	539	
13	0	0	0	0	579	578	537	
14	0	0	0	0	581	588	564	
15	0	0	0	0	583	599	541	
0	0	0	0	0	583	609	546	
1	0	0	0	0	584	619	509	
2	0	0	0	0	584	629	493	
3	0	0	0	0	586	639	470	
4	0	0	0	0	588	649	490	
5	0	0	0	0	591	659	469	
6	0	0	0	0	592	669	493	
7	0	0	0	0	595	679	469	
8	0	0	0	0	598	689	492	
9	0	0	0	0	598	699	587	
10	0	0	0	0	597	708	729	
11	0	0	0	0	594	717	651	
12	0	0	0	0	592	726	514	
13	0	0	0	0	590	735	451	
14	0	0	0	0	587	743	447	
15	0	0	0	0	585	752	457	
0	0	0	0	0	586	760	482	
1	0	0	0	0	588	769	459	
2	0	0	0	0	588	777	470	
3	0	0	0	0	587	785	467	
4	0	0	0	0	585	793	500	
5	0	0	0	0	584	800	487	
6	0	0	0	0	582	807	515	
7	0	0	0	0	582	812	493	
8	0	0	0	0	582	819	519	
9	0	0	0	0	582	825	512	
10	0	0	0	0	581	831	531	
11	0	0	0	0	579	837	521	
12	0	0	0	0	575	842	532	
13	0	0	0	0	572	847	524	
14	0	0	0	0	568	852	535	
15	0	0	0	0	564	857	527	
0	0	0	0	0	561	862	541	
1	0	0	0	0	561	866	516	
2	0	0	0	0	562	870	538	
3	0	0	0	0	565	872	524	
4	0	0	0	0	568	876	536	
5	0	0	0	0	572	878	508	
6	0	0	0	0	575	881	518	
7	0	0	0	0	580	883	492	
8	0	0	0	0	585	885	511	
9	0	0	0	0	590	887	484	
10	0	0	0	0	595	889	502	
11	0	0	0	0	600	891	488	
12	0	0	0	0	604	893	508	
13	0	0	0	0	606	896	478	
14	0	0	0	0	607	899	497	
15	0	0	0	0	608	902	482	
0	0	0	0	0	608	904	498	
1	0	0	0	0	608	906	481	
2	0	0	0	0	607	908	508	
3	0	0	0	0	604	910	496	
4	0	0	0	0	601	911	514	
5	0	0	0	0	596	912	503	
6	0	0	0	0	593	912	520	
7	0	0	0	0	591	911	505	
8	0	0	0	0	589	909	533	
9	0	0	0	0	590	907	516	
10	0	0	0	0	591	903	535	
11	0	0	0	0	594	899	518	
12	0	0	0	0	597	893	532	
13	0	0	0	0	599	885	514	
14	0	0	0	0	600	878	529	
15	0	0	0	0	601	870	513	
0	0	0	0	0	600	862	523	
1	0	0	0	0	599	852	496	
2	0	0	0	0	596	843	523	
3	0	0	0	0	593	834	508	
4	0	0	0	0	590	824	520	
5	0	0	0	0	587	814	496	
6	0	0	0	0	583	806	516	
7	0	0	0	0	578	797	499	
8	0	0	0	0	572	790	521	
9	0	0	0	0	566	782	499	
10	0	0	0	0	557	775	504	
11	0	0	0	0	548	768	498	
12	0	0	0	0	540	762	512	
13	0	0	0	0	534	756	499	
14	0	0	0	0	525	751	500	
15	0	0	0	0	517	745	499	
0	0	0	0	0	509	740	530	
1	0	0	0	0	501	735	520	
2	0	0	0	0	493	731	543	
3	0	0	0	0	486	727	542	
4	0	0	0	0	481	723	546	
5	0	0	0	0	477	719	515	
6	0	0	0	0	472	716	519	
7	0	0	0	0	470	712	467	
8	0	0	0	0	470	708	459	
9	0	0	0	0	469	705	457	
10	0	0	0	0	471	702	472	
11	0	0	0	0	473	698	461	
12	0	0	0	0	475	695	479	
13	0	0	0	0	475	692	452	
14	0	0	0	0	476	688	519	
15	0	0	0	0	475	684	664	
0	0	0	0	0	473	678	732	
1	0	0	0	0	472	673	543	
2	0	0	0	0	467	667	468	
3	0	0	0	0	459	659	432	
4	0	0	0	0	450	653	448	
5	0	0	0	0	438	645	430	
6	0	0	0	0	422	637	474	
7	0	0	0	0	401	630	455	
8	0	0	0	0	380	622	485	
9	0	0	0	0	356	614	471	
10	0	0	0	0	331	606	501	
11	0	0	0	0	307	597	481	
12	0	0	0	0	282	588	500	
13	0	0	0	0	258	579	499	
14	0	0	0	0	239	568	511	
15	0	0	0	0	221	559	494	
0	0	0	0	0	207	549	518	
1	0	0	0	0	196	538	505	
2	0	0	0	0	187	527	511	
3	0	0	0	0	181	515	503	
4	0	0	0	0	181	504	525	
5	0	0	0	0	186	491	508	
6	0	0	0	0	193	480	529	
7	0	0	0	0	206	467	509	
8	0	0	0	0	224	455	527	
9	0	0	0	0	245	444	499	
10	0	0	0	0	270	433	515	
11	0	0	0	0	300	421	499	
12	0	0	0	0	335	408	507	
13	0	0	0	0	372	395	496	
14	0	0	0	0	410	382	518	
15	0	0	0	0	449	370	492	
0	0	0	0	0	489	358	499	
1	0	0	0	0	525	346	485	
2	0	0	0	0	559	334	495	
3	0	0	0	0	590	324	479	
4	0	0	0	0	619	313	482	
5	0	0	0	0	645	303	476	
6	0	0	0	0	668	292	494	
7	0	0	0	0	687	283	477	
8	0	0	0	0	703	273	513	
9	0	0	0	0	718	263	503	
10	0	0	0	0	728	254	521	
11	0	0	0	0	738	243	501	
12	0	0	0	0	743	233	529	
13	0	0	0	0	748	222	509	
14	0	0	0	0	750	209	524	
15	0	0	0	0	751	199	520	
0	0	0	0	0	750	188	527	
1	0	0	0	0	750	177	511	
2	0	0	0	0	745	165	531	
3	0	0	0	0	740	154	517	
4	0	0	0	0	736	144	521	
5	0	0	0	0	732	135	514	
6	0	0	0	0	726	127	524	
7	0	0	0	0	719	120	502	
8	0	0	0	0	712	112	517	
9	0	0	0	0	707	106	490	
10	0	0	0	0	702	99	522	
11	0	0	0	0	696	94	491	
12	0	0	0	0	693	89	506	
13	0	0	0	0	690	82	500	
14	0	0	0	0	688	79	511	
15	0	0	0	0	684	73	497	
0	0	0	0	0	681	70	507	
1	0	0	0	0	678	66	498	
2	0	0	0	0	675	62	514	
3	0	0	0	0	672	62	501	
4	0	0	0	0	669	61	526	
5	0	0	0	0	665	61	499	
6	0	0	0	0	662	62	523	
7	0	0	0	0	659	67	510	
8	0	0	0	0	652	71	522	
9	0	0	0	0	645	76	504	
10	0	0	0	0	637	84	534	
11	0	0	0	0	626	90	529	
12	0	0	0	0	610	95	540	
13	0	0	0	0	595	102	543	
14	0	0	0	0	579	108	549	
15	0	0	0	0	565	114	558	
0	0	0	0	0	551	120	592	
1	0	0	0	0	538	127	563	
2	0	0	0	0	524	132	576	
3	0	0	0	0	511	137	522	
4	0	0	0	0	495	145	517	
5	0	0	0	0	475	151	485	
6	0	0	0	0	455	156	506	
7	0	0	0	0	432	162	493	
8	0	0	0	0	410	167	508	
9	0	0	0	0	387	174	487	
10	0	0	0	0	364	179	500	
11	0	0	0	0	342	185	524	
12	0	0	0	0	324	191	696	
13	0	0	0	0	308	196	722	
14	0	0	0	0	295	201	561	
15	0	0	0	0	287	206	454	
0	0	0	0	0	281	210	458	
1	0	0	0	0	279	214	452	
2	0	0	0	0	280	218	480	
3	0	0	0	0	280	222	472	
4	0	0	0	0	280	226	495	
5	0	0	0	0	283	230	489	
6	0	0	0	0	284	234	510	
7	0	0	0	0	284	238	488	
8	0	0	0	0	287	242	512	
9	0	0	0	0	290	246	495	
10	0	0	0	0	292	250	523	
11	0	0	0	0	294	255	492	
12	0	0	0	0	297	261	532	
13	0	0	0	0	299	268	511	
14	0	0	0	0	302	276	532	
15	0	0	0	0	306	286	516	
0	0	0	0	0	313	296	543	
1	0	0	0	0	320	307	518	
2	0	0	0	0	327	318	543	
3	0	0	0	0	335	330	519	
4	0	0	0	0	346	342	535	
5	0	0	0	0	357	353	520	
6	0	0	0	0	370	366	515	
7	0	0	0	0	387	378	489	
8	0	0	0	0	404	390	516	
9	0	0	0	0	421	403	486	
10	0	0	0	0	439	416	509	
11	0	0	0	0	456	430	486	
12	0	0	0	0	470	445	515	
13	0	0	0	0	483	460	488	
14	0	0	0	0	497	476	504	
15	0	0	0	0	508	493	470	
0	0	0	0	0	518	510	510	
1	0	0	0	0	524	528	484	
2	0	0	0	0	527	545	503	
3	0	0	0	0	527	562	481	
4	0	0	0	0	526	580	515	
5	0	0	0	0	526	597	492	
6	0	0	0	0	523	615	516	
7	0	0	0	0	520	632	505	
8	0	0	0	0	517	649	525	
9	0	0	0	0	515	667	509	
10	0	0	0	0	514	684	529	
11	0	0	0	0	512	701	513	
12	0	0	0	0	511	719	537	
13	0	0	0	0	512	736	508	
14	0	0	0	0	513	752	535	
15	0	0	0	0	513	769	511	
0	0	0	0	0	512	784	533	
1	0	0	0	0	513	799	503	
2	0	0	0	0	514	814	519	
3	0	0	0	0	513	826	499	
4	0	0	0	0	513	839	516	
5	0	0	0	0	512	850	495	
6	0	0	0	0	510	861	518	
7	0	0	0	0	507	871	504	
8	0	0	0	0	504	881	523	
9	0	0	0	0	502	890	492	
10	0	0	0	0	499	898	520	
11	0	0	0	0	497	906	507	
12	0	0	0	0	495	913	524	
13	0	0	0	0	494	920	502	
14	0	0	0	0	494	927	529	
15	0	0	0	0	494	933	504	
0	0	0	0	0	493	938	526	
1	0	0	0	0	492	943	502	
2	0	0	0	0	490	947	517	
3	0	0	0	0	490	950	496	
4	0	0	0	0	489	952	525	
5	0	0	0	0	488	954	496	
6	0	0	0	0	487	955	518	
7	0	0	0	0	486	955	499	
8	0	0	0	0	486	955	523	
9	0	0	0	0	483	954	497	
10	0	0	0	0	480	951	524	
11	0	0	0	0	478	948	495	
12	0	0	0	0	477	943	542	
13	0	0	0	0	477	938	526	
14	0	0	0	0	477	934	563	
15	0	0	0	0	479	930	540	
0	0	0	0	0	478	926	556	
1	0	0	0	0	477	923	510	
2	0	0	0	0	478	920	499	
3	0	0	0	0	478	917	469	
4	0	0	0	0	477	914	483	
5	0	0	0	0	476	910	480	
6	0	0	0	0	475	906	508	
7	0	0	0	0	474	901	477	
8	0	0	0	0	474	896	488	
9	0	0	0	0	473	890	497	
10	0	0	0	0	471	884	679	
11	0	0	0	0	469	877	743	
12	0	0	0	0	469	870	580	
13	0	0	0	0	468	862	485	
14	0	0	0	0	468	853	463	
15	0	0	0	0	469	844	432	
0	0	0	0	0	469	834	458	
1	0	0	0	0	468	824	450	
2	0	0	0	0	467	815	469	
3	0	0	0	0	465	804	455	
4	0	0	0	0	463	793	487	
5	0	0	0	0	464	783	458	
6	0	0	0	0	465	771	487	
7	0	0	0	0	466	760	468	
8	0	0	0	0	466	746	497	
9	0	0	0	0	465	733	469	
10	0	0	0	0	464	719	499	
11	0	0	0	0	462	705	481	
12	0	0	0	0	461	691	505	
13	0	0	0	0	459	676	487	
14	0	0	0	0	458	662	508	
15	0	0	0	0	460	647	486	
0	0	0	0	0	462	633	503	
1	0	0	0	0	463	620	476	
2	0	0	0	0	465	606	508	
3	0	0	0	0	470	592	466	
4	0	0	0	0	475	578	503	
5	0	0	0	0	481	564	472	
6	0	0	0	0	489	551	494	
7	0	0	0	0	496	538	471	
8	0	0	0	0	504	525	495	
9	0	0	0	0	512	512	463	
10	0	0	0	0	521	499	489	
11	0	0	0	0	529	486	462	
12	0	0	0	0	537	473	476	
13	0	0	0	0	543	460	451	
14	0	0	0	0	548	448	477	
15	0	0	0	0	551	436	444	
0	0	0	0	0	552	424	471	
1	0	0	0	0	553	412	459	
2	0	0	0	0	553	401	482	
3	0	0	0	0	551	390	449	
4	0	0	0	0	550	378	495	
5	0	0	0	0	548	367	460	
6	0	0	0	0	544	355	503	
7	0	0	0	0	541	344	481	
8	0	0	0	0	538	333	504	
9	0	0	0	0	535	323	488	
10	0	0	0	0	533	313	503	
11	0	0	0	0	533	303	486	
12	0	0	0	0	533	293	516	
13	0	0	0	0	532	284	488	
14	0	0	0	0	531	276	499	
15	0	0	0	0	531	266	487	
0	0	0	0	0	529	259	511	
1	0	0	0	0	526	252	485	
2	0	0	0	0	525	245	495	
3	0	0	0	0	525	238	495	
4	0	0	0	0	525	232	517	
5	0	0	0	0	522	226	491	
6	0	0	0	0	521	222	509	
7	0	0	0	0	519	217	485	
8	0	0	0	0	516	212	512	
9	0	0	0	0	514	207	486	
10	0	0	0	0	511	203	494	
11	0	0	0	0	509	198	497	
12	0	0	0	0	508	193	508	
13	0	0	0	0	506	187	487	
14	0	0	0	0	505	183	507	
15	0	0	0	0	505	176	483	
0	0	0	0	0	506	171	516	
1	0	0	0	0	504	166	503	
2	0	0	0	0	504	159	538	
3	0	0	0	0	502	153	527	
4	0	0	0	0	499	146	564	
5	0	0	0	0	497	139	554	
6	0	0	0	0	495	133	572	
7	0	0	0	0	494	126	524	
8	0	0	0	0	494	117	519	
9	0	0	0	0	494	108	458	
10	0	0	0	0	493	102	492	
11	0	0	0	0	489	96	469	
12	0	0	0	0	488	89	488	
13	0	0	0	0	487	83	470	
14	0	0	0	0	486	78	500	
15	0	0	0	0	484	74	459	
0	0	0	0	0	486	68	577	
1	0	0	0	0	486	63	712	
2	0	0	0	0	487	58	708	
3	0	0	0	0	488	56	492	
4	0	0	0	0	489	53	468	
5	0	0	0	0	490	49	447	
6	0	0	0	0	489	46	473	
7	0	0	0	0	488	43	463	
8	0	0	0	0	488	41	492	
9	0	0	0	0	487	39	460	
10	0	0	0	0	487	38	500	
11	0	0	0	0	487	35	483	
12	0	0	0	0	487	33	503	
13	0	0	0	0	485	34	484	
14	0	0	0	0	485	32	509	
15	0	0	0	0	484	32	486	
0	0	0	0	0	484	31	511	
1	0	0	0	0	480	31	492	
2	0	0	0	0	479	30	512	
3	0	0	0	0	479	33	492	
4	0	0	0	0	478	33	517	
5	0	0	0	0	477	32	487	
6	0	0	0	0	476	36	512	
7	0	0	0	0	477	36	487	
8	0	0	0	0	478	36	510	
9	0	0	0	0	481	39	485	
10	0	0	0	0	483	40	506	
11	0	0	0	0	488	41	480	
12	0	0	0	0	496	41	507	
13	0	0	0	0	502	44	477	
14	0	0	0	0	509	45	496	
15	0	0	0	0	517	50	474	
0	0	0	0	0	525	54	500	
1	0	0	0	0	532	57	481	
2	0	0	0	0	538	64	503	
3	0	0	0	0	543	72	466	
4	0	0	0	0	547	83	504	
5	0	0	0	0	546	93	486	
6	0	0	0	0	547	105	500	
7	0	0	0	0	548	118	487	
8	0	0	0	0	545	133	516	
9	0	0	0	0	542	150	492	
10	0	0	0	0	539	166	525	
11	0	0	0	0	537	184	507	
12	0	0	0	0	536	201	531	
13	0	0	0	0	534	222	517	
14	0	0	0	0	532	240	543	
15	0	0	0	0	531	260	524	
0	0	0	0	0	529	280	552	
1	0	0	0	0	528	299	530	
2	0	0	0	0	528	320	544	
3	0	0	0	0	531	339	517	
4	0	0	0	0	533	359	557	
5	0	0	0	0	533	379	522	
6	0	0	0	0	534	398	542	
7	0	0	0	0	534	417	515	
8	0	0	0	0	534	435	532	
9	0	0	0	0	530	454	517	
10	0	0	0	0	528	472	534	
11	0	0	0	0	525	490	508	
12	0	0	0	0	520	508	535	
13	0	0	0	0	515	527	505	
14	0	0	0	0	512	544	530	
15	0	0	0	0	508	561	500	
0	0	0	0	0	505	578	527	
1	0	0	0	0	502	595	502	
2	0	0	0	0	500	611	523	
3	0	0	0	0	500	627	503	
4	0	0	0	0	500	641	519	
5	0	0	0	0	500	656	504	
6	0	0	0	0	499	670	533	
7	0	0	0	0	499	683	508	
8	0	0	0	0	500	696	529	
9	0	0	0	0	500	708	503	
10	0	0	0	0	500	720	558	
11	0	0	0	0	499	732	539	
12	0	0	0	0	498	743	570	
13	0	0	0	0	496	753	550	
14	0	0	0	0	495	763	563	
15	0	0	0	0	493	772	523	
0	0	0	0	0	491	780	504	
1	0	0	0	0	489	789	463	
2	0	0	0	0	489	796	489	
3	0	0	0	0	488	803	458	
4	0	0	0	0	489	808	488	
5	0	0	0	0	489	813	467	
6	0	0	0	0	491	817	495	
7	0	0	0	0	492	821	465	
8	0	0	0	0	491	824	600	
9	0	0	0	0	490	826	700	
10	0	0	0	0	490	828	683	
11	0	0	0	0	489	828	504	
12	0	0	0	0	489	829	488	
13	0	0	0	0	489	830	422	
14	0	0	0	0	488	831	470	
15	0	0	0	0	488	831	443	
0	0	0	0	0	487	831	484	
1	0	0	0	0	487	832	464	
2	0	0	0	0	486	831	496	
3	0	0	0	0	484	831	481	
4	0	0	0	0	483	828	507	
5	0	0	0	0	482	824	487	
6	0	0	0	0	482	817	518	
7	0	0	0	0	482	809	500	
8	0	0	0	0	481	801	518	
9	0	0	0	0	479	790	499	
10	0	0	0	0	477	779	529	
11	0	0	0	0	475	767	508	
12	0	0	0	0	475	754	539	
13	0	0	0	0	475	742	512	
14	0	0	0	0	475	729	540	
15	0	0	0	0	475	715	510	
0	0	0	0	0	476	704	539	
1	0	0	0	0	479	690	523	
2	0	0	0	0	480	676	534	
3	0	0	0	0	483	663	526	
4	0	0	0	0	490	649	547	
5	0	0	0	0	494	635	509	
6	0	0	0	0	498	622	532	
7	0	0	0	0	504	608	509	
8	0	0	0	0	512	596	519	
9	0	0	0	0	518	583	488	
10	0	0	0	0	524	571	510	
11	0	0	0	0	529	559	485	
12	0	0	0	0	533	547	499	
13	0	0	0	0	533	536	477	
14	0	0	0	0	535	524	498	
15	0	0	0	0	536	512	478	
0	0	0	0	0	536	499	504	
1	0	0	0	0	535	487	481	
2	0	0	0	0	533	475	502	
3	0	0	0	0	529	463	491	
4	0	0	0	0	526	451	520	
5	0	0	0	0	524	440	478	
6	0	0	0	0	524	429	529	
7	0	0	0	0	525	418	511	
8	0	0	0	0	527	408	526	
9	0	0	0	0	527	397	501	
10	0	0	0	0	528	386	528	
11	0	0	0	0	527	376	502	
12	0	0	0	0	527	366	531	
13	0	0	0	0	527	355	500	
14	0	0	0	0	526	345	528	
15	0	0	0	0	524	335	500	
0	0	0	0	0	523	325	513	
1	0	0	0	0	521	316	486	
2	0	0	0	0	520	308	524	
3	0	0	0	0	519	299	490	
4	0	0	0	0	515	291	512	
5	0	0	0	0	512	282	490	
6	0	0	0	0	513	273	521	
7	0	0	0	0	512	265	485	
8	0	0	0	0	511	258	529	
9	0	0	0	0	511	252	486	
10	0	0	0	0	510	246	511	
11	0	0	0	0	511	239	526	
12	0	0	0	0	508	234	545	
13	0	0	0	0	507	230	528	
14	0	0	0	0	507	226	568	
15	0	0	0	0	505	223	533	
0	0	0	0	0	505	220	547	
1	0	0	0	0	504	216	501	
2	0	0	0	0	505	212	500	
3	0	0	0	0	505	210	463	
4	0	0	0	0	504	206	493	
5	0	0	0	0	504	203	468	
6	0	0	0	0	503	199	495	
7	0	0	0	0	502	196	478	
8	0	0	0	0	500	192	484	
9	0	0	0	0	498	190	510	
10	0	0	0	0	498	189	696	
11	0	0	0	0	497	189	718	
12	0	0	0	0	496	190	568	
13	0	0	0	0	496	193	472	
14	0	0	0	0	496	195	468	
15	0	0	0	0	496	198	449	
0	0	0	0	0	495	204	492	
1	0	0	0	0	494	209	470	
2	0	0	0	0	493	218	501	
3	0	0	0	0	493	226	487	
4	0	0	0	0	495	235	518	
5	0	0	0	0	495	245	493	
6	0	0	0	0	494	254	519	
7	0	0	0	0	494	263	512	
8	0	0	0	0	492	271	534	
9	0	0	0	0	491	279	515	
10	0	0	0	0	491	286	546	
11	0	0	0	0	492	294	517	
12	0	0	0	0	492	301	556	
13	0	0	0	0	491	306	524	
14	0	0	0	0	491	311	559	
15	0	0	0	0	489	316	530	
0	0	0	0	0	487	321	563	
1	0	0	0	0	486	326	544	
2	0	0	0	0	487	331	566	
3	0	0	0	0	486	336	546	
4	0	0	0	0	487	341	561	
5	0	0	0	0	489	346	539	
6	0	0	0	0	493	351	555	
7	0	0	0	0	498	356	528	
8	0	0	0	0	504	360	553	
9	0	0	0	0	509	366	513	
10	0	0	0	0	515	371	537	
11	0	0	0	0	519	376	507	
12	0	0	0	0	524	382	510	
13	0	0	0	0	528	388	489	
14	0	0	0	0	532	395	508	
15	0	0	0	0	535	400	494	
0	0	0	0	0	536	407	510	
1	0	0	0	0	536	412	486	
2	0	0	0	0	534	417	509	
3	0	0	0	0	533	422	488	
4	0	0	0	0	532	426	516	
5	0	0	0	0	531	429	504	
6	0	0	0	0	531	430	519	
7	0	0	0	0	532	432	495	
8	0	0	0	0	532	434	525	
9	0	0	0	0	532	436	501	
10	0	0	0	0	531	438	527	
11	0	0	0	0	531	440	519	
12	0	0	0	0	530	442	528	
13	0	0	0	0	529	444	519	
14	0	0	0	0	529	448	532	
15	0	0	0	0	530	451	509	
0	0	0	0	0	531	455	536	
1	0	0	0	0	530	460	505	
2	0	0	0	0	527	464	531	
3	0	0	0	0	525	470	493	
4	0	0	0	0	523	476	531	
5	0	0	0	0	521	482	492	
6	0	0	0	0	519	488	528	
7	0	0	0	0	518	495	503	
8	0	0	0	0	516	502	534	
9	0	0	0	0	515	510	519	
10	0	0	0	0	516	518	550	
11	0	0	0	0	515	525	539	
12	0	0	0	0	513	533	559	
13	0	0	0	0	511	541	535	
14	0	0	0	0	510	548	530	
15	0	0	0	0	511	556	462	
0	0	0	0	0	509	564	492	
1	0	0	0	0	507	571	473	
2	0	0	0	0	504	578	483	
3	0	0	0	0	503	587	480	
4	0	0	0	0	504	595	495	
5	0	0	0	0	504	604	457	
6	0	0	0	0	507	613	523	
7	0	0	0	0	509	623	630	
8	0	0	0	0	511	633	738	
9	0	0	0	0	512	643	594	
10	0	0	0	0	511	654	539	
11	0	0	0	0	510	664	438	
12	0	0	0	0	508	674	442	
13	0	0	0	0	505	684	425	
14	0	0	0	0	503	694	463	
15	0	0	0	0	501	703	438	
0	0	0	0	0	499	712	452	
1	0	0	0	0	498	721	442	
2	0	0	0	0	497	730	479	
3	0	0	0	0	497	737	458	
4	0	0	0	0	496	744	497	
5	0	0	0	0	494	752	464	
6	0	0	0	0	494	760	513	
7	0	0	0	0	494	768	476	
8	0	0	0	0	496	775	523	
9	0	0	0	0	497	783	490	
10	0	0	0	0	498	790	527	
11	0	0	0	0	498	797	509	
12	0	0	0	0	498	803	534	
13	0	0	0	0	498	810	503	
14	0	0	0	0	497	815	537	
15	0	0	0	0	497	820	508	
0	0	0	0	0	497	825	537	
1	0	0	0	0	496	830	497	
2	0	0	0	0	498	834	512	
3	0	0	0	0	500	838	503	
4	0	0	0	0	500	842	514	
5	0	0	0	0	499	845	493	
6	0	0	0	0	500	847	497	
7	0	0	0	0	501	850	503	
8	0	0	0	0	503	852	500	
9	0	0	0	0	503	854	459	
10	0	0	0	0	505	855	500	
11	0	0	0	0	507	856	463	
12	0	0	0	0	508	856	499	
13	0	0	0	0	508	856	455	
14	0	0	0	0	508	856	499	
15	0	0	0	0	508	855	485	
0	0	0	0	0	509	854	507	
1	0	0	0	0	510	852	492	
2	0	0	0	0	511	849	507	
3	0	0	0	0	514	846	481	
4	0	0	0	0	515	841	535	
5	0	0	0	0	515	836	494	
6	0	0	0	0	515	830	534	
7	0	0	0	0	516	822	502	
8	0	0	0	0	517	814	514	
9	0	0	0	0	518	806	512	
10	0	0	0	0	519	795	519	
11	0	0	0	0	521	785	499	
12	0	0	0	0	522	774	519	
13	0	0	0	0	521	762	484	
14	0	0	0	0	520	751	496	
15	0	0	0	0	519	739	483	
0	0	0	0	0	518	728	517	
1	0	0	0	0	516	717	505	
2	0	0	0	0	517	707	516	
3	0	0	0	0	518	697	537	
4	0	0	0	0	518	688	547	
5	0	0	0	0	518	679	521	
6	0	0	0	0	518	671	508	
7	0	0	0	0	518	664	467	
8	0	0	0	0	519	657	492	
9	0	0	0	0	517	651	462	
10	0	0	0	0	518	645	480	
11	0	0	0	0	519	639	475	
12	0	0	0	0	518	634	496	
13	0	0	0	0	518	630	476	
14	0	0	0	0	519	626	491	
15	0	0	0	0	519	622	588	
0	0	0	0	0	519	619	714	
1	0	0	0	0	519	617	615	
2	0	0	0	0	518	614	551	
3	0	0	0	0	517	612	432	
4	0	0	0	0	515	610	405	
5	0	0	0	0	514	610	379	
6	0	0	0	0	513	609	414	
7	0	0	0	0	512	610	388	
8	0	0	0	0	511	611	454	
9	0	0	0	0	510	614	415	
10	0	0	0	0	508	616	448	
11	0	0	0	0	506	621	431	
12	0	0	0	0	505	626	472	
13	0	0	0	0	504	633	453	
14	0	0	0	0	503	644	483	
15	0	0	0	0	503	655	478	
0	0	0	0	0	504	665	491	
1	0	0	0	0	504	672	466	
2	0	0	0	0	504	674	497	
3	0	0	0	0	505	671	468	
4	0	0	0	0	505	667	497	
5	0	0	0	0	504	661	482	
6	0	0	0	0	504	653	508	
7	0	0	0	0	504	645	481	
8	0	0	0	0	504	637	504	
9	0	0	0	0	505	631	462	
10	0	0	0	0	505	627	510	
11	0	0	0	0	507	626	485	
12	0	0	0	0	509	624	516	
13	0	0	0	0	513	622	473	
14	0	0	0	0	517	617	508	
15	0	0	0	0	521	608	494	
0	0	0	0	0	526	598	496	
1	0	0	0	0	531	586	454	
2	0	0	0	0	534	575	519	
3	0	0	0	0	537	566	494	
4	0	0	0	0	539	558	489	
5	0	0	0	0	541	551	487	
6	0	0	0	0	540	542	524	
7	0	0	0	0	539	530	512	
8	0	0	0	0	539	514	513	
9	0	0	0	0	540	496	494	
10	0	0	0	0	539	479	525	
11	0	0	0	0	539	464	519	
12	0	0	0	0	540	449	560	
13	0	0	0	0	541	434	506	
14	0	0	0	0	540	420	540	
15	0	0	0	0	539	408	534	
0	0	0	0	0	539	396	562	
1	0	0	0	0	536	387	542	
2	0	0	0	0	534	381	570	
3	0	0	0	0	532	377	513	
4	0	0	0	0	531	376	553	
5	0	0	0	0	529	377	518	
6	0	0	0	0	528	380	549	
7	0	0	0	0	528	383	529	
8	0	0	0	0	528	387	583	
9	0	0	0	0	528	392	534	
10	0	0	0	0	526	397	568	
11	0	0	0	0	524	404	575	
12	0	0	0	0	524	411	610	
13	0	0	0	0	524	417	612	
14	0	0	0	0	523	423	597	
15	0	0	0	0	523	429	572	
0	0	0	0	0	524	434	567	
1	0	0	0	0	524	439	528	
2	0	0	0	0	523	443	521	
3	0	0	0	0	521	447	503	
4	0	0	0	0	519	450	534	
5	0	0	0	0	517	452	516	
6	0	0	0	0	518	452	527	
7	0	0	0	0	517	454	502	
8	0	0	0	0	516	455	572	
9	0	0	0	0	516	455	727	
10	0	0	0	0	516	453	802	
11	0	0	0	0	516	448	596	
12	0	0	0	0	515	441	534	
13	0	0	0	0	514	432	435	
14	0	0	0	0	513	423	491	
15	0	0	0	0	513	416	486	
0	0	0	0	0	513	408	516	
1	0	0	0	0	514	400	481	
2	0	0	0	0	513	394	483	
3	0	0	0	0	514	389	487	
4	0	0	0	0	514	384	496	
5	0	0	0	0	514	380	512	
6	0	0	0	0	514	376	544	
7	0	0	0	0	514	370	481	
8	0	0	0	0	514	364	526	
9	0	0	0	0	515	357	512	
10	0	0	0	0	515	349	516	
11	0	0	0	0	513	342	492	
12	0	0	0	0	513	336	536	
13	0	0	0	0	513	332	525	
14	0	0	0	0	513	326	521	
15	0	0	0	0	511	320	518	
0	0	0	0	0	512	314	573	
1	0	0	0	0	511	307	524	
2	0	0	0	0	512	301	538	
3	0	0	0	0	513	297	516	
4	0	0	0	0	516	293	531	
5	0	0	0	0	521	293	521	
6	0	0	0	0	525	292	554	
7	0	0	0	0	531	291	512	
8	0	0	0	0	537	289	551	
9	0	0	0	0	544	287	509	
10	0	0	0	0	550	285	499	
11	0	0	0	0	554	281	494	
12	0	0	0	0	557	279	513	
13	0	0	0	0	558	274	503	
14	0	0	0	0	560	271	519	
15	0	0	0	0	560	267	485	
0	0	0	0	0	560	264	524	
1	0	0	0	0	561	262	480	
2	0	0	0	0	559	261	523	
3	0	0	0	0	558	260	492	
4	0	0	0	0	556	261	554	
5	0	0	0	0	555	260	556	
6	0	0	0	0	555	258	539	
7	0	0	0	0	556	258	525	
8	0	0	0	0	557	263	558	
9	0	0	0	0	557	270	559	
10	0	0	0	0	558	281	575	
11	0	0	0	0	558	292	532	
12	0	0	0	0	555	306	536	
13	0	0	0	0	551	316	540	
14	0	0	0	0	548	327	541	
15	0	0	0	0	547	338	532	
0	0	0	0	0	546	348	529	
1	0	0	0	0	547	359	520	
2	0	0	0	0	546	367	537	
3	0	0	0	0	544	372	544	
4	0	0	0	0	544	375	590	
5	0	0	0	0	543	376	536	
6	0	0	0	0	542	374	559	
7	0	0	0	0	539	370	474	
8	0	0	0	0	537	364	479	
9	0	0	0	0	535	359	436	
10	0	0	0	0	534	356	455	
11	0	0	0	0	532	353	468	
12	0	0	0	0	531	350	455	
13	0	0	0	0	531	345	452	
14	0	0	0	0	531	337	471	
15	0	0	0	0	529	325	455	
0	0	0	0	0	529	306	649	
1	0	0	0	0	529	286	753	
2	0	0	0	0	528	267	673	
3	0	0	0	0	526	249	465	
4	0	0	0	0	525	232	451	
5	0	0	0	0	524	217	395	
6	0	0	0	0	521	203	439	
7	0	0	0	0	518	190	432	
8	0	0	0	0	517	178	471	
9	0	0	0	0	515	166	443	
10	0	0	0	0	516	155	462	
11	0	0	0	0	515	145	455	
12	0	0	0	0	514	135	486	
13	0	0	0	0	512	126	467	
14	0	0	0	0	512	120	497	
15	0	0	0	0	512	113	488	
0	0	0	0	0	513	107	497	
1	0	0	0	0	514	100	463	
2	0	0	0	0	515	94	506	
3	0	0	0	0	515	88	486	
4	0	0	0	0	517	80	519	
5	0	0	0	0	518	75	495	
6	0	0	0	0	519	73	499	
7	0	0	0	0	518	73	495	
8	0	0	0	0	519	77	516	
9	0	0	0	0	519	82	480	
10	0	0	0	0	521	89	523	
11	0	0	0	0	522	99	497	
12	0	0	0	0	526	109	498	
13	0	0	0	0	532	117	470	
14	0	0	0	0	537	127	489	
15	0	0	0	0	543	136	453	
0	0	0	0	0	548	143	470	
1	0	0	0	0	554	150	439	
2	0	0	0	0	561	155	455	
3	0	0	0	0	564	160	418	
4	0	0	0	0	568	166	458	
5	0	0	0	0	569	170	439	
6	0	0	0	0	570	175	464	
7	0	0	0	0	571	180	455	
8	0	0	0	0	571	186	489	
9	0	0	0	0	569	193	465	
10	0	0	0	0	568	203	504	
11	0	0	0	0	570	215	473	
12	0	0	0	0	569	230	512	
13	0	0	0	0	572	248	486	
14	0	0	0	0	574	266	514	
15	0	0	0	0	575	284	481	
0	0	0	0	0	576	302	525	
1	0	0	0	0	580	320	516	
2	0	0	0	0	580	338	522	
3	0	0	0	0	579	355	519	
4	0	0	0	0	578	368	539	
5	0	0	0	0	576	380	531	
6	0	0	0	0	572	391	561	
7	0	0	0	0	569	401	533	
8	0	0	0	0	567	411	564	
9	0	0	0	0	563	419	555	
10	0	0	0	0	560	427	543	
11	0	0	0	0	556	434	524	
12	0	0	0	0	551	440	520	
13	0	0	0	0	547	445	440	
14	0	0	0	0	545	450	469	
15	0	0	0	0	543	454	424	
0	0	0	0	0	541	457	456	
1	0	0	0	0	541	460	433	
2	0	0	0	0	541	462	465	
3	0	0	0	0	541	464	430	
4	0	0	0	0	541	465	475	
5	0	0	0	0	541	466	656	
6	0	0	0	0	542	466	742	
7	0	0	0	0	540	466	541	
8	0	0	0	0	541	465	431	
9	0	0	0	0	540	464	384	
10	0	0	0	0	539	461	421	
11	0	0	0	0	536	457	400	
12	0	0	0	0	533	452	434	
13	0	0	0	0	530	448	414	
14	0	0	0	0	527	443	444	
15	0	0	0	0	526	438	416	
0	0	0	0	0	524	433	462	
1	0	0	0	0	523	428	439	
2	0	0	0	0	523	423	482	
3	0	0	0	0	523	419	464	
4	0	0	0	0	522	416	496	
5	0	0	0	0	521	413	473	
6	0	0	0	0	519	412	507	
7	0	0	0	0	518	411	471	
8	0	0	0	0	519	411	525	
9	0	0	0	0	518	411	503	
10	0	0	0	0	518	410	528	
11	0	0	0	0	516	410	512	
12	0	0	0	0	516	409	532	
13	0	0	0	0	518	410	508	
14	0	0	0	0	520	410	529	
15	0	0	0	0	523	409	499	
0	0	0	0	0	527	410	520	
1	0	0	0	0	534	410	494	
2	0	0	0	0	540	410	513	
3	0	0	0	0	547	411	488	
4	0	0	0	0	554	411	505	
5	0	0	0	0	561	410	468	
6	0	0	0	0	567	409	487	
7	0	0	0	0	572	408	456	
8	0	0	0	0	575	407	474	
9	0	0	0	0	577	404	462	
10	0	0	0	0	578	402	482	
11	0	0	0	0	577	398	459	
12	0	0	0	0	576	394	488	
13	0	0	0	0	575	391	461	
14	0	0	0	0	574	389	487	
15	0	0	0	0	573	388	461	
0	0	0	0	0	572	388	492	
1	0	0	0	0	569	390	469	
2	0	0	0	0	568	393	496	
3	0	0	0	0	567	397	478	
4	0	0	0	0	567	400	507	
5	0	0	0	0	567	404	479	
6	0	0	0	0	566	409	505	
7	0	0	0	0	563	415	479	
8	0	0	0	0	562	420	505	
9	0	0	0	0	559	425	483	
10	0	0	0	0	557	430	515	
11	0	0	0	0	552	434	496	
12	0	0	0	0	548	439	528	
13	0	0	0	0	544	443	520	
14	0	0	0	0	541	446	540	
15	0	0	0	0	537	449	502	
0	0	0	0	0	535	451	508	
1	0	0	0	0	533	451	443	
2	0	0	0	0	532	452	453	
3	0	0	0	0	532	453	427	
4	0	0	0	0	532	453	452	
5	0	0	0	0	532	454	414	
6	0	0	0	0	530	454	452	
7	0	0	0	0	528	454	442	
8	0	0	0	0	526	455	461	
9	0	0	0	0	525	456	564	
10	0	0	0	0	523	457	736	
11	0	0	0	0	521	457	639	
12	0	0	0	0	520	458	502	
13	0	0	0	0	518	458	440	
14	0	0	0	0	516	457	442	
15	0	0	0	0	513	457	429	
0	0	0	0	0	512	457	457	
1	0	0	0	0	511	459	435	
2	0	0	0	0	510	460	468	
3	0	0	0	0	509	462	454	
4	0	0	0	0	508	464	479	
5	0	0	0	0	505	467	451	
6	0	0	0	0	503	471	490	
7	0	0	0	0	500	475	473	
8	0	0	0	0	499	479	499	
9	0	0	0	0	497	483	475	
10	0	0	0	0	497	488	506	
11	0	0	0	0	497	492	474	
12	0	0	0	0	499	498	514	
13	0	0	0	0	499	503	485	
14	0	0	0	0	498	508	508	
15	0	0	0	0	499	515	494	
0	0	0	0	0	499	521	519	
1	0	0	0	0	501	529	496	
2	0	0	0	0	501	536	529	
3	0	0	0	0	503	545	499	
4	0	0	0	0	506	552	530	
5	0	0	0	0	510	559	492	
6	0	0	0	0	513	566	514	
7	0	0	0	0	518	572	486	
8	0	0	0	0	524	578	519	
9	0	0	0	0	530	583	485	
10	0	0	0	0	536	589	497	
11	0	0	0	0	540	594	480	
12	0	0	0	0	543	599	508	
13	0	0	0	0	546	604	472	
14	0	0	0	0	548	608	506	
15	0	0	0	0	551	612	472	
0	0	0	0	0	551	616	513	
1	0	0	0	0	552	619	487	
2	0	0	0	0	550	622	507	
3	0	0	0	0	549	625	496	
4	0	0	0	0	547	627	525	
5	0	0	0	0	544	630	499	
6	0	0	0	0	541	632	528	
7	0	0	0	0	540	634	503	
8	0	0	0	0	537	635	518	
9	0	0	0	0	536	636	509	
10	0	0	0	0	536	637	530	
11	0	0	0	0	535	638	513	
12	0	0	0	0	535	637	531	
13	0	0	0	0	533	637	512	
14	0	0	0	0	531	637	532	
15	0	0	0	0	528	637	508	
0	0	0	0	0	524	636	524	
1	0	0	0	0	521	635	509	
2	0	0	0	0	519	633	536	
3	0	0	0	0	516	632	508	
4	0	0	0	0	513	629	526	
5	0	0	0	0	512	628	511	
6	0	0	0	0	508	626	547	
7	0	0	0	0	507	624	531	
8	0	0	0	0	504	623	564	
9	0	0	0	0	504	621	563	
10	0	0	0	0	505	620	589	
11	0	0	0	0	506	618	545	
12	0	0	0	0	506	616	547	
13	0	0	0	0	507	615	484	
14	0	0	0	0	506	613	500	
15	0	0	0	0	505	611	468	
0	0	0	0	0	505	609	490	
1	0	0	0	0	505	606	467	
2	0	0	0	0	505	604	502	
3	0	0	0	0	504	601	461	
4	0	0	0	0	504	598	512	
5	0	0	0	0	504	595	643	
6	0	0	0	0	503	592	762	
7	0	0	0	0	501	589	601	
8	0	0	0	0	501	585	493	
9	0	0	0	0	502	582	438	
10	0	0	0	0	500	578	470	
11	0	0	0	0	497	574	452	
12	0	0	0	0	496	571	466	
13	0	0	0	0	493	567	458	
14	0	0	0	0	494	563	491	
15	0	0	0	0	492	559	465	
0	0	0	0	0	491	555	501	
1	0	0	0	0	492	551	478	
2	0	0	0	0	493	546	507	
3	0	0	0	0	492	542	483	
4	0	0	0	0	491	538	507	
5	0	0	0	0	490	534	485	
6	0	0	0	0	489	531	509	
7	0	0	0	0	490	528	487	
8	0	0	0	0	489	527	515	
9	0	0	0	0	487	525	492	
10	0	0	0	0	487	524	514	
11	0	0	0	0	487	522	484	
12	0	0	0	0	487	520	514	
13	0	0	0	0	487	519	503	
14	0	0	0	0	489	517	519	
15	0	0	0	0	493	515	486	
0	0	0	0	0	496	513	508	
1	0	0	0	0	500	510	481	
2	0	0	0	0	507	507	510	
3	0	0	0	0	512	502	482	
4	0	0	0	0	518	499	502	
5	0	0	0	0	522	495	473	
6	0	0	0	0	527	491	489	
7	0	0	0	0	531	487	471	
8	0	0	0	0	532	484	486	
9	0	0	0	0	534	480	463	
10	0	0	0	0	535	477	467	
11	0	0	0	0	534	475	468	
12	0	0	0	0	533	472	488	
13	0	0	0	0	531	470	456	
14	0	0	0	0	529	469	492	
15	0	0	0	0	529	468	476	
0	0	0	0	0	526	467	510	
1	0	0	0	0	525	465	480	
2	0	0	0	0	525	463	511	
3	0	0	0	0	524	462	480	
4	0	0	0	0	522	460	522	
5	0	0	0	0	520	457	494	
6	0	0	0	0	520	454	509	
7	0	0	0	0	516	450	476	
8	0	0	0	0	515	447	505	
9	0	0	0	0	515	444	479	
10	0	0	0	0	515	440	510	
11	0	0	0	0	515	437	475	
12	0	0	0	0	514	434	494	
13	0	0	0	0	512	431	489	
14	0	0	0	0	512	428	511	
15	0	0	0	0	511	425	486	
0	0	0	0	0	510	422	508	
1	0	0	0	0	509	419	486	
2	0	0	0	0	509	417	504	
3	0	0	0	0	508	414	492	
4	0	0	0	0	505	412	500	
5	0	0	0	0	505	410	478	
6	0	0	0	0	503	408	509	
7	0	0	0	0	502	406	480	
8	0	0	0	0	501	403	518	
9	0	0	0	0	500	401	487	
10	0	0	0	0	499	398	504	
11	0	0	0	0	499	395	477	
12	0	0	0	0	497	391	507	
13	0	0	0	0	496	389	492	
14	0	0	0	0	496	386	505	
15	0	0	0	0	496	383	492	
0	0	0	0	0	495	380	513	
1	0	0	0	0	494	377	476	
2	0	0	0	0	493	375	510	
3	0	0	0	0	491	372	488	
4	0	0	0	0	491	371	514	
5	0	0	0	0	490	369	496	
6	0	0	0	0	489	367	517	
7	0	0	0	0	488	365	487	
8	0	0	0	0	488	364	521	
9	0	0	0	0	489	363	518	
10	0	0	0	0	490	361	553	
11	0	0	0	0	490	359	547	
12	0	0	0	0	490	359	567	
13	0	0	0	0	490	358	527	
14	0	0	0	0	490	359	532	
15	0	0	0	0	490	358	471	
0	0	0	0	0	489	359	484	
1	0	0	0	0	487	359	460	
2	0	0	0	0	487	360	476	
3	0	0	0	0	487	361	475	
4	0	0	0	0	487	363	495	
5	0	0	0	0	486	365	458	
6	0	0	0	0	486	367	566	
7	0	0	0	0	486	369	689	
8	0	0	0	0	485	372	717	
9	0	0	0	0	487	374	509	
10	0	0	0	0	487	375	481	
11	0	0	0	0	486	377	444	
12	0	0	0	0	486	378	481	
13	0	0	0	0	485	379	462	
14	0	0	0	0	486	380	491	
15	0	0	0	0	487	380	479	
0	0	0	0	0	487	381	502	
1	0	0	0	0	487	380	483	
2	0	0	0	0	486	379	510	
3	0	0	0	0	485	377	493	
4	0	0	0	0	484	374	517	
5	0	0	0	0	483	371	502	
6	0	0	0	0	482	367	528	
7	0	0	0	0	481	362	503	
8	0	0	0	0	480	357	524	
9	0	0	0	0	481	352	509	
10	0	0	0	0	482	347	536	
11	0	0	0	0	484	342	516	
12	0	0	0	0	485	337	543	
13	0	0	0	0	485	333	521	
14	0	0	0	0	486	328	547	
15	0	0	0	0	487	325	524	
0	0	0	0	0	488	321	547	
1	0	0	0	0	489	319	520	
2	0	0	0	0	491	316	545	
3	0	0	0	0	494	314	516	
4	0	0	0	0	496	313	538	
5	0	0	0	0	499	313	513	
6	0	0	0	0	501	312	542	
7	0	0	0	0	504	314	516	
8	0	0	0	0	506	315	539	
9	0	0	0	0	508	317	514	
10	0	0	0	0	510	320	531	
11	0	0	0	0	511	324	511	
12	0	0	0	0	512	329	536	
13	0	0	0	0	512	334	518	
14	0	0	0	0	513	339	544	
15	0	0	0	0	513	345	529	
0	0	0	0	0	512	352	559	
1	0	0	0	0	510	358	545	
2	0	0	0	0	508	365	571	
3	0	0	0	0	508	372	550	
4	0	0	0	0	509	380	576	
5	0	0	0	0	509	388	555	
6	0	0	0	0	510	395	580	
7	0	0	0	0	511	403	558	
8	0	0	0	0	510	410	570	
9	0	0	0	0	511	418	564	
10	0	0	0	0	512	425	581	
11	0	0	0	0	512	433	552	
12	0	0	0	0	512	440	576	
13	0	0	0	0	511	446	555	
14	0	0	0	0	509	453	577	
15	0	0	0	0	507	459	559	
0	0	0	0	0	504	465	579	
1	0	0	0	0	503	470	562	
2	0	0	0	0	502	476	584	
3	0	0	0	0	501	480	567	
4	0	0	0	0	501	485	584	
5	0	0	0	0	499	489	563	
6	0	0	0	0	499	494	585	
7	0	0	0	0	498	497	567	
8	0	0	0	0	499	501	588	
9	0	0	0	0	500	504	567	
10	0	0	0	0	500	508	583	
11	0	0	0	0	500	511	579	
12	0	0	0	0	502	513	599	
13	0	0	0	0	502	516	570	
14	0	0	0	0	503	518	590	
15	0	0	0	0	502	520	578	
0	0	0	0	0	500	523	595	
1	0	0	0	0	500	525	578	
2	0	0	0	0	499	527	597	
3	0	0	0	0	499	528	576	
4	0	0	0	0	498	530	599	
5	0	0	0	0	498	532	563	
6	0	0	0	0	497	534	597	
7	0	0	0	0	495	536	577	
8	0	0	0	0	494	538	595	
9	0	0	0	0	492	540	575	
10	0	0	0	0	492	541	596	
11	0	0	0	0	493	543	573	
12	0	0	0	0	496	545	592	
13	0	0	0	0	497	547	593	
14	0	0	0	0	497	548	614	
15	0	0	0	0	498	550	599	
0	0	0	0	0	499	552	624	
1	0	0	0	0	500	553	582	
2	0	0	0	0	500	555	599	
3	0	0	0	0	500	556	549	
4	0	0	0	0	498	557	541	
5	0	0	0	0	496	558	517	
6	0	0	0	0	497	558	524	
7	0	0	0	0	495	559	521	
8	0	0	0	0	494	560	534	
9	0	0	0	0	494	561	512	
10	0	0	0	0	493	562	551	
11	0	0	0	0	494	563	679	
12	0	0	0	0	493	565	782	
13	0	0	0	0	492	566	625	
14	0	0	0	0	492	568	518	
15	0	0	0	0	492	569	472	
0	0	0	0	0	492	571	487	
1	0	0	0	0	492	572	479	
2	0	0	0	0	492	573	497	
3	0	0	0	0	491	574	487	
4	0	0	0	0	491	576	502	
5	0	0	0	0	491	577	487	
6	0	0	0	0	491	579	504	
7	0	0	0	0	492	580	498	
8	0	0	0	0	492	581	506	
9	0	0	0	0	494	582	508	
10	0	0	0	0	496	582	518	
11	0	0	0	0	496	582	513	
12	0	0	0	0	495	581	541	
13	0	0	0	0	494	579	518	
14	0	0	0	0	495	577	534	
15	0	0	0	0	492	574	528	
0	0	0	0	0	489	569	535	
1	0	0	0	0	487	565	527	
2	0	0	0	0	487	561	543	
3	0	0	0	0	488	556	520	
4	0	0	0	0	489	552	541	
5	0	0	0	0	492	549	514	
6	0	0	0	0	494	545	532	
7	0	0	0	0	496	542	505	
8	0	0	0	0	498	540	515	
9	0	0	0	0	500	537	484	
10	0	0	0	0	503	534	519	
11	0	0	0	0	505	531	491	
12	0	0	0	0	508	528	497	
13	0	0	0	0	510	524	490	
14	0	0	0	0	512	520	503	
15	0	0	0	0	516	516	480	
0	0	0	0	0	516	512	495	
1	0	0	0	0	516	508	473	
2	0	0	0	0	515	504	497	
3	0	0	0	0	516	499	481	
4	0	0	0	0	516	496	503	
5	0	0	0	0	515	492	483	
6	0	0	0	0	514	489	522	
7	0	0	0	0	512	487	497	
8	0	0	0	0	512	484	518	
9	0	0	0	0	510	482	503	
10	0	0	0	0	508	481	518	
11	0	0	0	0	509	480	499	
12	0	0	0	0	508	479	532	
13	0	0	0	0	508	478	492	
14	0	0	0	0	509	477	529	
15	0	0	0	0	510	476	498	
0	0	0	0	0	510	475	525	
1	0	0	0	0	510	474	495	
2	0	0	0	0	510	473	512	
3	0	0	0	0	510	472	483	
4	0	0	0	0	510	472	524	
5	0	0	0	0	510	471	487	
6	0	0	0	0	510	470	511	
7	0	0	0	0	510	468	503	
8	0	0	0	0	511	467	512	
9	0	0	0	0	510	466	487	
10	0	0	0	0	508	465	519	
11	0	0	0	0	508	463	496	
12	0	0	0	0	507	463	512	
13	0	0	0	0	506	462	485	
14	0	0	0	0	507	461	510	
15	0	0	0	0	506	460	483	
0	0	0	0	0	507	459	500	
1	0	0	0	0	508	457	486	
2	0	0	0	0	508	455	505	
3	0	0	0	0	509	454	497	
4	0	0	0	0	508	451	511	
5	0	0	0	0	508	449	490	
6	0	0	0	0	508	447	507	
7	0	0	0	0	508	445	496	
8	0	0	0	0	506	443	521	
9	0	0	0	0	506	442	503	
10	0	0	0	0	505	440	526	
11	0	0	0	0	505	439	489	
12	0	0	0	0	505	437	530	
13	0	0	0	0	505	435	505	
14	0	0	0	0	505	433	514	
15	0	0	0	0	505	430	495	
0	0	0	0	0	504	426	520	
1	0	0	0	0	504	423	490	
2	0	0	0	0	503	419	504	
3	0	0	0	0	500	415	480	
4	0	0	0	0	499	412	511	
5	0	0	0	0	499	409	493	
6	0	0	0	0	499	407	516	
7	0	0	0	0	498	405	499	
8	0	0	0	0	499	402	541	
9	0	0	0	0	499	400	519	
10	0	0	0	0	498	398	559	
11	0	0	0	0	499	397	521	
12	0	0	0	0	498	395	538	
13	0	0	0	0	499	393	486	
14	0	0	0	0	500	391	486	
15	0	0	0	0	499	389	452	
0	0	0	0	0	500	387	476	
1	0	0	0	0	500	385	466	
2	0	0	0	0	500	384	485	
3	0	0	0	0	498	384	461	
4	0	0	0	0	499	385	512	
5	0	0	0	0	500	386	637	
6	0	0	0	0	499	389	729	
7	0	0	0	0	500	393	558	
8	0	0	0	0	499	399	479	
9	0	0	0	0	496	405	437	
10	0	0	0	0	496	412	464	
11	0	0	0	0	496	419	454	
12	0	0	0	0	497	428	479	
13	0	0	0	0	499	437	463	
14	0	0	0	0	500	446	492	
15	0	0	0	0	502	454	478	
0	0	0	0	0	503	463	497	
1	0	0	0	0	503	470	487	
2	0	0	0	0	502	478	512	
3	0	0	0	0	504	486	500	
4	0	0	0	0	504	492	517	
5	0	0	0	0	505	498	505	
6	0	0	0	0	505	504	524	
7	0	0	0	0	503	508	508	
8	0	0	0	0	501	511	525	
9	0	0	0	0	498	513	512	
10	0	0	0	0	497	515	530	
11	0	0	0	0	497	515	513	
12	0	0	0	0	496	514	534	
13	0	0	0	0	496	511	519	
14	0	0	0	0	496	507	535	
15	0	0	0	0	496	501	514	
0	0	0	0	0	496	494	527	
1	0	0	0	0	496	487	500	
2	0	0	0	0	496	482	513	
3	0	0	0	0	498	477	488	
4	0	0	0	0	499	472	505	
5	0	0	0	0	500	469	484	
6	0	0	0	0	503	465	500	
7	0	0	0	0	506	462	478	
8	0	0	0	0	510	459	491	
9	0	0	0	0	512	458	471	
10	0	0	0	0	515	459	483	
11	0	0	0	0	516	460	477	
12	0	0	0	0	519	463	495	
13	0	0	0	0	519	467	484	
14	0	0	0	0	519	473	509	
15	0	0	0	0	518	480	494	
0	0	0	0	0	517	487	518	
1	0	0	0	0	515	495	505	
2	0	0	0	0	515	504	539	
3	0	0	0	0	516	512	517	
4	0	0	0	0	515	522	542	
5	0	0	0	0	516	531	521	
6	0	0	0	0	516	541	543	
7	0	0	0	0	516	550	522	
8	0	0	0	0	516	560	539	
9	0	0	0	0	518	569	524	
10	0	0	0	0	518	578	543	
11	0	0	0	0	518	587	525	
12	0	0	0	0	518	596	543	
13	0	0	0	0	519	604	524	
14	0	0	0	0	519	613	546	
15	0	0	0	0	518	621	520	
0	0	0	0	0	516	629	549	
1	0	0	0	0	515	638	520	
2	0	0	0	0	514	645	543	
3	0	0	0	0	513	652	527	
4	0	0	0	0	513	658	539	
5	0	0	0	0	512	664	522	
6	0	0	0	0	510	670	544	
7	0	0	0	0	508	676	523	
8	0	0	0	0	508	681	540	
9	0	0	0	0	509	687	520	
10	0	0	0	0	508	691	535	
11	0	0	0	0	508	697	520	
12	0	0	0	0	508	702	540	
13	0	0	0	0	509	708	519	
14	0	0	0	0	508	713	540	
15	0	0	0	0	507	719	516	
0	0	0	0	0	507	724	536	
1	0	0	0	0	506	729	517	
2	0	0	0	0	506	734	535	
3	0	0	0	0	506	739	516	
4	0	0	0	0	507	743	534	
5	0	0	0	0	507	748	521	
6	0	0	0	0	506	752	536	
7	0	0	0	0	505	757	513	
8	0	0	0	0	506	761	536	
9	0	0	0	0	507	765	514	
10	0	0	0	0	507	769	536	
11	0	0	0	0	507	772	515	
12	0	0	0	0	505	774	541	
13	0	0	0	0	504	776	519	
14	0	0	0	0	504	777	557	
15	0	0	0	0	503	778	541	
0	0	0	0	0	504	779	564	
1	0	0	0	0	505	778	569	
2	0	0	0	0	506	778	574	
3	0	0	0	0	508	776	541	
4	0	0	0	0	509	775	527	
5	0	0	0	0	510	773	483	
6	0	0	0	0	511	770	496	
7	0	0	0	0	510	767	477	
8	0	0	0	0	509	763	494	
9	0	0	0	0	508	760	476	
10	0	0	0	0	506	755	491	
11	0	0	0	0	506	752	499	
12	0	0	0	0	506	748	679	
13	0	0	0	0	505	744	729	
14	0	0	0	0	505	740	588	
15	0	0	0	0	504	736	466	
0	0	0	0	0	503	731	455	
1	0	0	0	0	504	726	438	
2	0	0	0	0	503	720	462	
3	0	0	0	0	501	716	451	
4	0	0	0	0	501	711	471	
5	0	0	0	0	500	707	444	
6	0	0	0	0	499	703	471	
7	0	0	0	0	500	699	470	
8	0	0	0	0	500	696	491	
9	0	0	0	0	501	692	473	
10	0	0	0	0	502	687	490	
11	0	0	0	0	502	683	476	
12	0	0	0	0	502	678	497	
13	0	0	0	0	502	673	476	
14	0	0	0	0	503	668	497	
15	0	0	0	0	504	664	491	
0	0	0	0	0	504	660	509	
1	0	0	0	0	504	657	493	
2	0	0	0	0	504	654	511	
3	0	0	0	0	504	649	507	
4	0	0	0	0	503	645	527	
5	0	0	0	0	502	640	497	
6	0	0	0	0	502	636	521	
7	0	0	0	0	504	632	500	
8	0	0	0	0	504	627	496	
9	0	0	0	0	505	623	490	
10	0	0	0	0	507	618	503	
11	0	0	0	0	508	613	472	
12	0	0	0	0	511	608	494	
13	0	0	0	0	509	602	471	
14	0	0	0	0	511	596	484	
15	0	0	0	0	510	590	462	
0	0	0	0	0	512	583	483	
1	0	0	0	0	511	576	456	
2	0	0	0	0	514	568	476	
3	0	0	0	0	515	560	461	
4	0	0	0	0	519	551	489	
5	0	0	0	0	521	543	479	
6	0	0	0	0	523	534	494	
7	0	0	0	0	523	526	485	
8	0	0	0	0	523	518	511	
9	0	0	0	0	523	511	495	
10	0	0	0	0	523	504	500	
11	0	0	0	0	524	497	500	
12	0	0	0	0	526	491	527	
13	0	0	0	0	528	484	500	
14	0	0	0	0	530	478	527	
15	0	0	0	0	529	472	510	
0	0	0	0	0	531	467	525	
1	0	0	0	0	529	461	503	
2	0	0	0	0	528	455	525	
3	0	0	0	0	527	447	496	
4	0	0	0	0	526	440	516	
5	0	0	0	0	523	433	499	
6	0	0	0	0	521	425	517	
7	0	0	0	0	521	419	496	
8	0	0	0	0	519	412	523	
9	0	0	0	0	518	406	509	
10	0	0	0	0	518	401	531	
11	0	0	0	0	517	396	517	
12	0	0	0	0	516	391	529	
13	0	0	0	0	517	388	512	
14	0	0	0	0	519	385	519	
15	0	0	0	0	518	382	501	
0	0	0	0	0	519	379	529	
1	0	0	0	0	519	376	507	
2	0	0	0	0	520	374	512	
3	0	0	0	0	520	372	508	
4	0	0	0	0	521	370	519	
5	0	0	0	0	520	367	501	
6	0	0	0	0	521	365	516	
7	0	0	0	0	521	363	504	
8	0	0	0	0	521	361	521	
9	0	0	0	0	521	360	496	
10	0	0	0	0	521	358	519	
11	0	0	0	0	519	356	491	
12	0	0	0	0	517	354	522	
13	0	0	0	0	515	352	504	
14	0	0	0	0	513	350	521	
15	0	0	0	0	513	348	511	
0	0	0	0	0	511	345	525	
1	0	0	0	0	509	343	500	
2	0	0	0	0	509	340	525	
3	0	0	0	0	511	338	517	
4	0	0	0	0	511	336	535	
5	0	0	0	0	511	333	517	
6	0	0	0	0	512	331	531	
7	0	0	0	0	513	328	510	
8	0	0	0	0	513	327	531	
9	0	0	0	0	515	324	512	
10	0	0	0	0	515	322	522	
11	0	0	0	0	514	320	514	
12	0	0	0	0	514	318	538	
13	0	0	0	0	513	317	528	
14	0	0	0	0	511	315	560	
15	0	0	0	0	510	315	550	
0	0	0	0	0	510	313	558	
1	0	0	0	0	510	312	537	
2	0	0	0	0	509	311	519	
3	0	0	0	0	509	310	483	
4	0	0	0	0	508	309	498	
5	0	0	0	0	507	308	482	
6	0	0	0	0	508	307	499	
7	0	0	0	0	509	307	483	
8	0	0	0	0	510	307	484	
9	0	0	0	0	512	307	503	
10	0	0	0	0	513	307	671	
11	0	0	0	0	513	307	717	
12	0	0	0	0	513	307	582	
13	0	0	0	0	513	307	450	
14	0	0	0	0	512	306	446	
15	0	0	0	0	511	307	450	
0	0	0	0	0	510	305	470	
1	0	0	0	0	510	305	460	
2	0	0	0	0	509	306	486	
3	0	0	0	0	509	306	474	
4	0	0	0	0	510	306	493	
5	0	0	0	0	509	307	476	
6	0	0	0	0	509	306	503	
7	0	0	0	0	508	307	490	
8	0	0	0	0	507	306	500	
9	0	0	0	0	507	306	489	
10	0	0	0	0	506	306	505	
11	0	0	0	0	506	305	488	
12	0	0	0	0	505	306	496	
13	0	0	0	0	504	305	491	
14	0	0	0	0	505	305	504	
15	0	0	0	0	505	305	491	
0	0	0	0	0	505	306	511	
1	0	0	0	0	503	305	497	
2	0	0	0	0	504	306	518	
3	0	0	0	0	504	307	501	
4	0	0	0	0	504	309	515	
5	0	0	0	0	504	311	497	
6	0	0	0	0	507	313	510	
7	0	0	0	0	508	316	499	
8	0	0	0	0	510	319	509	
9	0	0	0	0	514	322	491	
10	0	0	0	0	518	325	494	
11	0	0	0	0	522	329	484	
12	0	0	0	0	527	333	492	
13	0	0	0	0	530	337	476	
14	0	0	0	0	532	342	487	
15	0	0	0	0	535	346	473	
0	0	0	0	0	536	352	487	
1	0	0	0	0	537	357	477	
2	0	0	0	0	538	363	493	
3	0	0	0	0	536	369	489	
4	0	0	0	0	534	376	513	
5	0	0	0	0	532	384	506	
6	0	0	0	0	532	391	527	
7	0	0	0	0	532	400	516	
8	0	0	0	0	534	408	540	
9	0	0	0	0	534	416	535	
10	0	0	0	0	534	425	548	
11	0	0	0	0	534	433	538	
12	0	0	0	0	532	442	555	
13	0	0	0	0	531	450	538	
14	0	0	0	0	533	459	561	
15	0	0	0	0	534	468	541	
0	0	0	0	0	535	478	555	
1	0	0	0	0	535	487	543	
2	0	0	0	0	534	498	551	
3	0	0	0	0	536	508	533	
4	0	0	0	0	536	519	540	
5	0	0	0	0	535	529	540	
6	0	0	0	0	535	540	551	
7	0	0	0	0	534	550	530	
8	0	0	0	0	533	559	541	
9	0	0	0	0	533	568	529	
10	0	0	0	0	534	577	536	
11	0	0	0	0	535	585	527	
12	0	0	0	0	534	592	544	
13	0	0	0	0	532	600	528	
14	0	0	0	0	531	607	542	
15	0	0	0	0	531	615	530	
0	0	0	0	0	531	623	540	
1	0	0	0	0	528	630	536	
2	0	0	0	0	527	638	548	
3	0	0	0	0	527	644	529	
4	0	0	0	0	526	650	543	
5	0	0	0	0	526	655	532	
6	0	0	0	0	525	660	547	
7	0	0	0	0	524	665	536	
8	0	0	0	0	524	670	543	
9	0	0	0	0	525	675	534	
10	0	0	0	0	525	679	538	
11	0	0	0	0	526	684	526	
12	0	0	0	0	526	689	542	
13	0	0	0	0	525	694	518	
14	0	0	0	0	524	698	535	
15	0	0	0	0	523	702	520	
0	0	0	0	0	523	705	534	
1	0	0	0	0	523	710	516	
2	0	0	0	0	521	712	533	
3	0	0	0	0	521	714	533	
4	0	0	0	0	522	716	554	
5	0	0	0	0	521	718	540	
6	0	0	0	0	520	719	579	
7	0	0	0	0	522	719	563	
8	0	0	0	0	523	718	561	
9	0	0	0	0	521	717	516	
10	0	0	0	0	519	714	503	
11	0	0	0	0	519	711	480	
12	0	0	0	0	519	708	490	
13	0	0	0	0	517	704	478	
14	0	0	0	0	517	700	493	
15	0	0	0	0	517	696	460	
0	0	0	0	0	518	692	485	
1	0	0	0	0	518	688	583	
2	0	0	0	0	519	685	728	
3	0	0	0	0	520	681	645	
4	0	0	0	0	521	678	495	
5	0	0	0	0	520	674	438	
6	0	0	0	0	519	670	432	
7	0	0	0	0	519	665	432	
8	0	0	0	0	518	659	435	
9	0	0	0	0	516	654	445	
10	0	0	0	0	515	650	464	
11	0	0	0	0	514	645	443	
12	0	0	0	0	513	639	467	
13	0	0	0	0	512	634	442	
14	0	0	0	0	511	628	480	
15	0	0	0	0	510	622	463	
0	0	0	0	0	509	612	482	
1	0	0	0	0	508	603	479	
2	0	0	0	0	507	593	487	
3	0	0	0	0	508	583	474	
4	0	0	0	0	509	574	481	
5	0	0	0	0	508	563	483	
6	0	0	0	0	509	553	503	
7	0	0	0	0	510	543	490	
8	0	0	0	0	510	532	508	
9	0	0	0	0	512	522	496	
10	0	0	0	0	514	511	510	
11	0	0	0	0	515	499	502	
12	0	0	0	0	518	487	507	
13	0	0	0	0	521	475	501	
14	0	0	0	0	524	463	499	
15	0	0	0	0	528	452	496	
0	0	0	0	0	532	441	493	
1	0	0	0	0	536	430	480	
2	0	0	0	0	541	420	487	
3	0	0	0	0	543	410	477	
4	0	0	0	0	547	400	476	
5	0	0	0	0	549	391	449	
6	0	0	0	0	552	382	460	
7	0	0	0	0	554	373	453	
8	0	0	0	0	556	364	480	
9	0	0	0	0	555	355	463	
10	0	0	0	0	554	347	484	
11	0	0	0	0	554	339	473	
12	0	0	0	0	555	332	488	
13	0	0	0	0	555	324	499	
14	0	0	0	0	555	319	508	
15	0	0	0	0	555	314	500	
0	0	0	0	0	555	311	505	
1	0	0	0	0	554	307	506	
2	0	0	0	0	555	306	523	
3	0	0	0	0	556	304	513	
4	0	0	0	0	557	304	523	
5	0	0	0	0	557	304	519	
6	0	0	0	0	557	302	527	
7	0	0	0	0	556	302	512	
8	0	0	0	0	557	301	527	
9	0	0	0	0	557	301	509	
10	0	0	0	0	558	300	523	
11	0	0	0	0	559	300	514	
12	0	0	0	0	558	299	518	
13	0	0	0	0	557	299	507	
14	0	0	0	0	556	298	515	
15	0	0	0	0	556	298	495	
0	0	0	0	0	555	298	517	
1	0	0	0	0	553	298	505	
2	0	0	0	0	553	297	511	
3	0	0	0	0	553	297	497	
4	0	0	0	0	553	297	504	
5	0	0	0	0	551	295	497	
6	0	0	0	0	550	294	509	
7	0	0	0	0	550	292	499	
8	0	0	0	0	550	290	507	
9	0	0	0	0	550	288	500	
10	0	0	0	0	548	286	523	
11	0	0	0	0	548	284	508	
12	0	0	0	0	549	283	520	
13	0	0	0	0	547	281	507	
14	0	0	0	0	546	280	521	
15	0	0	0	0	547	280	510	
0	0	0	0	0	545	281	513	
1	0	0	0	0	543	283	506	
2	0	0	0	0	543	287	512	
3	0	0	0	0	540	291	503	
4	0	0	0	0	539	296	516	
5	0	0	0	0	536	302	505	
6	0	0	0	0	536	307	510	
7	0	0	0	0	536	316	506	
8	0	0	0	0	534	324	516	
9	0	0	0	0	535	335	514	
10	0	0	0	0	532	347	525	
11	0	0	0	0	531	361	518	
12	0	0	0	0	530	375	533	
13	0	0	0	0	530	389	527	
14	0	0	0	0	529	403	531	
15	0	0	0	0	529	417	531	
0	0	0	0	0	529	431	561	
1	0	0	0	0	530	445	562	
2	0	0	0	0	528	459	573	
3	0	0	0	0	526	472	573	
4	0	0	0	0	526	486	568	
5	0	0	0	0	525	499	547	
6	0	0	0	0	523	512	528	
7	0	0	0	0	521	525	511	
8	0	0	0	0	520	539	516	
9	0	0	0	0	519	552	501	
10	0	0	0	0	517	566	518	
11	0	0	0	0	517	579	511	
12	0	0	0	0	516	592	505	
13	0	0	0	0	515	605	563	
14	0	0	0	0	515	618	727	
15	0	0	0	0	513	631	735	
0	0	0	0	0	512	643	567	
1	0	0	0	0	512	655	494	
2	0	0	0	0	513	666	465	
3	0	0	0	0	513	676	465	
4	0	0	0	0	514	685	479	
5	0	0	0	0	514	694	476	
6	0	0	0	0	515	703	493	
7	0	0	0	0	516	711	485	
8	0	0	0	0	515	719	502	
9	0	0	0	0	515	726	493	
10	0	0	0	0	515	732	507	
11	0	0	0	0	514	736	498	
12	0	0	0	0	513	740	513	
13	0	0	0	0	512	741	501	
14	0	0	0	0	511	741	521	
15	0	0	0	0	512	739	510	
0	0	0	0	0	511	736	527	
1	0	0	0	0	510	731	520	
2	0	0	0	0	510	726	535	
3	0	0	0	0	510	720	526	
4	0	0	0	0	511	714	542	
5	0	0	0	0	509	708	534	
6	0	0	0	0	508	703	543	
7	0	0	0	0	509	696	535	
8	0	0	0	0	510	689	541	
9	0	0	0	0	512	682	525	
10	0	0	0	0	516	675	531	
11	0	0	0	0	520	669	521	
12	0	0	0	0	527	662	527	
13	0	0	0	0	532	657	505	
14	0	0	0	0	539	653	517	
15	0	0	0	0	545	650	491	
0	0	0	0	0	549	647	497	
1	0	0	0	0	553	645	475	
2	0	0	0	0	555	643	483	
3	0	0	0	0	555	643	457	
4	0	0	0	0	558	643	488	
5	0	0	0	0	559	643	478	
6	0	0	0	0	559	644	484	
7	0	0	0	0	559	646	472	
8	0	0	0	0	559	647	483	
9	0	0	0	0	557	647	479	
10	0	0	0	0	555	647	488	
11	0	0	0	0	551	647	484	
12	0	0	0	0	548	649	496	
13	0	0	0	0	546	650	495	
14	0	0	0	0	546	652	503	
15	0	0	0	0	545	655	499	
0	0	0	0	0	544	659	505	
1	0	0	0	0	543	663	505	
2	0	0	0	0	544	665	507	
3	0	0	0	0	543	668	503	
4	0	0	0	0	544	669	508	
5	0	0	0	0	545	670	491	
6	0	0	0	0	544	670	500	
7	0	0	0	0	544	670	490	
8	0	0	0	0	543	669	496	
9	0	0	0	0	541	668	487	
10	0	0	0	0	538	666	496	
11	0	0	0	0	537	662	477	
12	0	0	0	0	537	659	496	
13	0	0	0	0	536	654	479	
14	0	0	0	0	534	648	487	
15	0	0	0	0	532	642	482	
0	0	0	0	0	532	636	486	
1	0	0	0	0	531	630	486	
2	0	0	0	0	532	624	490	
3	0	0	0	0	532	617	484	
4	0	0	0	0	534	610	494	
5	0	0	0	0	534	604	486	
6	0	0	0	0	533	598	487	
7	0	0	0	0	532	591	481	
8	0	0	0	0	531	584	510	
9	0	0	0	0	528	577	508	
10	0	0	0	0	526	570	519	
11	0	0	0	0	525	563	506	
12	0	0	0	0	524	558	548	
13	0	0	0	0	521	551	529	
14	0	0	0	0	519	546	519	
15	0	0	0	0	518	542	470	
0	0	0	0	0	517	538	468	
1	0	0	0	0	515	534	461	
2	0	0	0	0	514	530	462	
3	0	0	0	0	513	526	462	
4	0	0	0	0	511	520	472	
5	0	0	0	0	511	515	467	
6	0	0	0	0	512	510	497	
7	0	0	0	0	512	504	632	
8	0	0	0	0	512	499	744	
9	0	0	0	0	512	494	615	
10	0	0	0	0	513	489	472	
11	0	0	0	0	514	484	448	
12	0	0	0	0	515	480	455	
13	0	0	0	0	515	475	457	
14	0	0	0	0	514	471	459	
15	0	0	0	0	514	468	471	
0	0	0	0	0	513	466	479	
1	0	0	0	0	512	464	482	
2	0	0	0	0	511	462	485	
3	0	0	0	0	511	459	468	
4	0	0	0	0	510	455	511	
5	0	0	0	0	509	452	507	
6	0	0	0	0	509	449	520	
7	0	0	0	0	508	445	508	
8	0	0	0	0	507	441	519	
9	0	0	0	0	505	438	524	
10	0	0	0	0	504	435	523	
11	0	0	0	0	502	432	527	
12	0	0	0	0	501	430	537	
13	0	0	0	0	502	428	521	
14	0	0	0	0	503	426	543	
15	0	0	0	0	504	423	538	
0	0	0	0	0	505	421	537	
1	0	0	0	0	506	419	522	
2	0	0	0	0	507	415	540	
3	0	0	0	0	510	413	518	
4	0	0	0	0	513	411	529	
5	0	0	0	0	517	408	518	
6	0	0	0	0	521	405	513	
7	0	0	0	0	527	403	513	
8	0	0	0	0	532	400	507	
9	0	0	0	0	536	398	478	
10	0	0	0	0	540	396	476	
11	0	0	0	0	542	393	483	
12	0	0	0	0	543	391	486	
13	0	0	0	0	544	389	474	
14	0	0	0	0	545	388	487	
15	0	0	0	0	545	387	486	
0	0	0	0	0	545	386	498	
1	0	0	0	0	543	386	503	
2	0	0	0	0	543	385	512	
3	0	0	0	0	543	384	498	
4	0	0	0	0	542	384	512	
5	0	0	0	0	540	384	515	
6	0	0	0	0	539	384	512	
7	0	0	0	0	536	383	505	
8	0	0	0	0	534	383	526	
9	0	0	0	0	532	383	524	
10	0	0	0	0	533	383	516	
11	0	0	0	0	533	383	529	
12	0	0	0	0	532	383	522	
13	0	0	0	0	532	383	523	
14	0	0	0	0	531	383	527	
15	0	0	0	0	530	382	515	
0	0	0	0	0	529	382	513	
1	0	0	0	0	527	382	515	
2	0	0	0	0	527	381	511	
3	0	0	0	0	527	381	500	
4	0	0	0	0	527	381	506	
5	0	0	0	0	524	380	495	
6	0	0	0	0	523	380	518	
7	0	0	0	0	521	380	510	
8	0	0	0	0	521	380	504	
9	0	0	0	0	519	380	502	
10	0	0	0	0	519	380	513	
11	0	0	0	0	518	380	502	
12	0	0	0	0	517	378	511	
13	0	0	0	0	516	378	505	
14	0	0	0	0	515	376	515	
15	0	0	0	0	514	376	516	
0	0	0	0	0	513	375	517	
1	0	0	0	0	510	374	513	
2	0	0	0	0	509	372	521	
3	0	0	0	0	510	372	539	
4	0	0	0	0	510	371	546	
5	0	0	0	0	509	370	548	
6	0	0	0	0	508	370	567	
7	0	0	0	0	508	370	551	
8	0	0	0	0	507	371	545	
9	0	0	0	0	504	371	516	
10	0	0	0	0	503	371	492	
11	0	0	0	0	502	372	487	
12	0	0	0	0	500	372	488	
13	0	0	0	0	499	373	480	
14	0	0	0	0	500	375	495	
15	0	0	0	0	502	376	480	
0	0	0	0	0	504	378	484	
1	0	0	0	0	506	380	578	
2	0	0	0	0	505	383	713	
3	0	0	0	0	505	386	681	
4	0	0	0	0	506	388	510	
5	0	0	0	0	507	392	475	
6	0	0	0	0	506	395	462	
7	0	0	0	0	505	398	476	
8	0	0	0	0	504	402	485	
9	0	0	0	0	502	406	485	
10	0	0	0	0	500	411	480	
11	0	0	0	0	498	416	490	
12	0	0	0	0	497	422	493	
13	0	0	0	0	496	429	486	
14	0	0	0	0	494	435	491	
15	0	0	0	0	495	443	503	
0	0	0	0	0	496	450	507	
1	0	0	0	0	497	458	509	
2	0	0	0	0	498	466	515	
3	0	0	0	0	498	474	516	
4	0	0	0	0	496	481	527	
5	0	0	0	0	495	489	522	
6	0	0	0	0	494	498	523	
7	0	0	0	0	494	506	525	
8	0	0	0	0	494	515	540	
9	0	0	0	0	494	522	531	
10	0	0	0	0	495	531	536	
11	0	0	0	0	497	539	536	
12	0	0	0	0	498	547	534	
13	0	0	0	0	496	554	535	
14	0	0	0	0	497	561	531	
15	0	0	0	0	500	568	529	
0	0	0	0	0	504	575	528	
1	0	0	0	0	507	581	523	
2	0	0	0	0	512	588	513	
3	0	0	0	0	516	594	502	
4	0	0	0	0	520	600	496	
5	0	0	0	0	522	606	492	
6	0	0	0	0	524	612	488	
7	0	0	0	0	524	618	493	
8	0	0	0	0	525	624	498	
9	0	0	0	0	524	631	497	
10	0	0	0	0	525	636	498	
11	0	0	0	0	524	643	510	
12	0	0	0	0	524	650	515	
13	0	0	0	0	523	655	512	
14	0	0	0	0	521	662	520	
15	0	0	0	0	521	668	529	
0	0	0	0	0	521	673	524	
1	0	0	0	0	521	679	532	
2	0	0	0	0	521	684	535	
3	0	0	0	0	520	689	525	
4	0	0	0	0	521	693	526	
5	0	0	0	0	521	697	526	
6	0	0	0	0	521	700	525	
7	0	0	0	0	521	703	520	
8	0	0	0	0	520	705	524	
9	0	0	0	0	519	707	519	
10	0	0	0	0	518	709	513	
11	0	0	0	0	516	710	523	
12	0	0	0	0	515	711	512	
13	0	0	0	0	512	711	518	
14	0	0	0	0	511	711	516	
15	0	0	0	0	510	710	517	
0	0	0	0	0	510	708	516	
1	0	0	0	0	508	706	512	
2	0	0	0	0	508	704	510	
3	0	0	0	0	508	700	507	
4	0	0	0	0	508	698	501	
5	0	0	0	0	508	695	499	
6	0	0	0	0	508	691	507	
7	0	0	0	0	508	687	505	
8	0	0	0	0	508	683	502	
9	0	0	0	0	510	679	491	
10	0	0	0	0	510	675	506	
11	0	0	0	0	510	670	500	
12	0	0	0	0	508	665	492	
13	0	0	0	0	507	662	496	
14	0	0	0	0	504	658	494	
15	0	0	0	0	502	654	505	
0	0	0	0	0	503	650	504	
1	0	0	0	0	502	646	496	
2	0	0	0	0	500	642	505	
3	0	0	0	0	500	638	510	
4	0	0	0	0	500	634	521	
5	0	0	0	0	499	631	531	
6	0	0	0	0	498	627	537	
7	0	0	0	0	498	623	551	
8	0	0	0	0	499	620	552	
9	0	0	0	0	502	616	529	
10	0	0	0	0	502	613	495	
11	0	0	0	0	503	610	478	
12	0	0	0	0	502	606	468	
13	0	0	0	0	503	603	480	
14	0	0	0	0	503	600	473	
15	0	0	0	0	500	595	482	
0	0	0	0	0	500	592	470	
1	0	0	0	0	500	589	489	
2	0	0	0	0	499	586	622	
3	0	0	0	0	496	583	723	
4	0	0	0	0	496	580	611	
5	0	0	0	0	496	577	466	
6	0	0	0	0	495	573	436	
7	0	0	0	0	497	569	441	
8	0	0	0	0	498	564	448	
9	0	0	0	0	499	560	448	
10	0	0	0	0	500	556	457	
11	0	0	0	0	500	552	460	
12	0	0	0	0	500	548	455	
13	0	0	0	0	498	545	461	
14	0	0	0	0	497	542	471	
15	0	0	0	0	497	538	475	
0	0	0	0	0	496	534	481	
1	0	0	0	0	495	531	479	
2	0	0	0	0	494	527	492	
3	0	0	0	0	493	523	510	
4	0	0	0	0	493	519	507	
5	0	0	0	0	492	516	510	
6	0	0	0	0	490	512	501	
7	0	0	0	0	489	510	525	
8	0	0	0	0	489	507	523	
9	0	0	0	0	488	504	529	
10	0	0	0	0	490	502	525	
11	0	0	0	0	492	499	513	
12	0	0	0	0	496	496	519	
13	0	0	0	0	499	494	515	
14	0	0	0	0	504	491	513	
15	0	0	0	0	509	488	513	
0	0	0	0	0	514	486	499	
1	0	0	0	0	519	483	515	
2	0	0	0	0	521	480	503	
3	0	0	0	0	526	477	498	
4	0	0	0	0	529	474	485	
5	0	0	0	0	533	472	482	
6	0	0	0	0	535	469	479	
7	0	0	0	0	535	467	475	
8	0	0	0	0	534	464	476	
9	0	0	0	0	532	462	478	
10	0	0	0	0	531	460	477	
11	0	0	0	0	529	458	479	
12	0	0	0	0	528	456	491	
13	0	0	0	0	525	454	491	
14	0	0	0	0	522	452	487	
15	0	0	0	0	519	450	492	
0	0	0	0	0	522	448	512	
1	0	0	0	0	524	447	516	
2	0	0	0	0	524	445	508	
3	0	0	0	0	526	444	515	
4	0	0	0	0	527	441	519	
5	0	0	0	0	528	439	515	
6	0	0	0	0	529	436	511	
7	0	0	0	0	527	433	515	
8	0	0	0	0	527	430	496	
9	0	0	0	0	526	427	501	
10	0	0	0	0	526	424	506	
11	0	0	0	0	526	420	496	
12	0	0	0	0	526	417	498	
13	0	0	0	0	527	413	496	
14	0	0	0	0	526	410	499	
15	0	0	0	0	526	406	508	
0	0	0	0	0	524	403	507	
1	0	0	0	0	524	399	507	
2	0	0	0	0	522	395	503	
3	0	0	0	0	520	391	516	
4	0	0	0	0	518	387	507	
5	0	0	0	0	515	383	521	
6	0	0	0	0	515	380	515	
7	0	0	0	0	514	376	516	
8	0	0	0	0	515	373	517	
9	0	0	0	0	516	369	513	
10	0	0	0	0	516	367	514	
11	0	0	0	0	515	364	511	
12	0	0	0	0	514	361	511	
13	0	0	0	0	513	359	518	
14	0	0	0	0	512	357	519	
15	0	0	0	0	509	356	513	
0	0	0	0	0	507	355	525	
1	0	0	0	0	506	355	525	
2	0	0	0	0	507	355	524	
3	0	0	0	0	507	355	518	
4	0	0	0	0	508	356	521	
5	0	0	0	0	511	358	528	
6	0	0	0	0	511	359	520	
7	0	0	0	0	511	362	523	
8	0	0	0	0	511	363	522	
9	0	0	0	0	512	365	525	
10	0	0	0	0	512	368	519	
11	0	0	0	0	511	369	523	
12	0	0	0	0	511	371	524	
13	0	0	0	0	510	373	527	
14	0	0	0	0	512	376	520	
15	0	0	0	0	510	378	521	
0	0	0	0	0	511	380	522	
1	0	0	0	0	510	383	521	
2	0	0	0	0	509	385	522	
3	0	0	0	0	507	387	531	
4	0	0	0	0	506	391	526	
5	0	0	0	0	506	392	531	
6	0	0	0	0	506	394	520	
7	0	0	0	0	506	396	535	
8	0	0	0	0	506	398	525	
9	0	0	0	0	506	399	532	
10	0	0	0	0	503	400	524	
11	0	0	0	0	502	401	540	
12	0	0	0	0	501	401	548	
13	0	0	0	0	500	401	550	
14	0	0	0	0	499	401	557	
15	0	0	0	0	499	401	568	
0	0	0	0	0	499	401	550	
1	0	0	0	0	500	400	528	
2	0	0	0	0	501	400	501	
3	0	0	0	0	500	399	489	
4	0	0	0	0	499	399	479	
5	0	0	0	0	499	398	495	
6	0	0	0	0	501	398	486	
7	0	0	0	0	501	398	498	
8	0	0	0	0	501	398	476	
9	0	0	0	0	502	398	522	
10	0	0	0	0	503	400	668	
11	0	0	0	0	503	401	735	
12	0	0	0	0	504	403	568	
13	0	0	0	0	505	404	470	
14	0	0	0	0	505	406	448	
15	0	0	0	0	505	408	462	
0	0	0	0	0	505	408	469	
1	0	0	0	0	507	409	476	
2	0	0	0	0	507	411	470	
3	0	0	0	0	505	412	487	
4	0	0	0	0	504	412	480	
5	0	0	0	0	503	413	485	
6	0	0	0	0	501	413	494	
7	0	0	0	0	502	412	503	
8	0	0	0	0	502	411	495	
9	0	0	0	0	501	409	507	
10	0	0	0	0	500	408	503	
11	0	0	0	0	501	405	511	
12	0	0	0	0	500	403	500	
13	0	0	0	0	499	400	514	
14	0	0	0	0	497	397	507	
15	0	0	0	0	496	395	511	
0	0	0	0	0	495	393	513	
1	0	0	0	0	496	390	524	
2	0	0	0	0	496	387	515	
3	0	0	0	0	497	385	528	
4	0	0	0	0	499	382	510	
5	0	0	0	0	500	380	526	
6	0	0	0	0	503	377	518	
7	0	0	0	0	505	375	519	
8	0	0	0	0	509	373	513	
9	0	0	0	0	512	372	517	
10	0	0	0	0	515	370	510	
11	0	0	0	0	519	368	512	
12	0	0	0	0	524	367	484	
13	0	0	0	0	527	366	491	
14	0	0	0	0	529	364	479	
15	0	0	0	0	532	364	491	
0	0	0	0	0	535	363	477	
1	0	0	0	0	536	363	484	
2	0	0	0	0	537	361	473	
3	0	0	0	0	537	361	489	
4	0	0	0	0	538	361	487	
5	0	0	0	0	538	361	492	
6	0	0	0	0	538	360	491	
7	0	0	0	0	536	360	507	
8	0	0	0	0	534	361	499	
9	0	0	0	0	534	362	513	
10	0	0	0	0	533	362	512	
11	0	0	0	0	533	362	532	
12	0	0	0	0	534	363	517	
13	0	0	0	0	534	363	523	
14	0	0	0	0	534	363	519	
15	0	0	0	0	535	362	525	
0	0	0	0	0	536	361	515	
1	0	0	0	0	536	360	522	
2	0	0	0	0	534	359	517	
3	0	0	0	0	534	358	518	
4	0	0	0	0	533	356	505	
5	0	0	0	0	531	355	515	
6	0	0	0	0	530	354	486	
7	0	0	0	0	528	353	509	
8	0	0	0	0	528	352	499	
9	0	0	0	0	526	352	510	
10	0	0	0	0	526	351	501	
11	0	0	0	0	526	350	512	
12	0	0	0	0	525	350	504	
13	0	0	0	0	525	349	515	
14	0	0	0	0	526	349	511	
15	0	0	0	0	526	348	518	
0	0	0	0	0	526	348	509	
1	0	0	0	0	526	349	515	
2	0	0	0	0	526	349	510	
3	0	0	0	0	526	349	519	
4	0	0	0	0	527	350	511	
5	0	0	0	0	525	352	518	
6	0	0	0	0	523	354	507	
7	0	0	0	0	521	356	518	
8	0	0	0	0	521	359	503	
9	0	0	0	0	520	363	517	
10	0	0	0	0	519	366	508	
11	0	0	0	0	520	369	516	
12	0	0	0	0	520	373	502	
13	0	0	0	0	520	378	508	
14	0	0	0	0	519	385	499	
15	0	0	0	0	518	391	504	
0	0	0	0	0	516	399	496	
1	0	0	0	0	516	405	510	
2	0	0	0	0	516	411	504	
3	0	0	0	0	515	416	516	
4	0	0	0	0	515	422	508	
5	0	0	0	0	516	427	519	
6	0	0	0	0	515	433	502	
7	0	0	0	0	514	439	513	
8	0	0	0	0	514	446	502	
9	0	0	0	0	513	453	512	
10	0	0	0	0	512	461	509	
11	0	0	0	0	512	469	518	
12	0	0	0	0	512	478	513	
13	0	0	0	0	511	486	524	
14	0	0	0	0	508	495	511	
15	0	0	0	0	505	504	527	
0	0	0	0	0	504	513	517	
1	0	0	0	0	505	521	528	
2	0	0	0	0	507	528	519	
3	0	0	0	0	509	536	529	
4	0	0	0	0	510	542	531	
5	0	0	0	0	511	547	556	
6	0	0	0	0	509	551	556	
7	0	0	0	0	507	554	568	
8	0	0	0	0	508	557	551	
9	0	0	0	0	506	559	527	
10	0	0	0	0	506	560	501	
11	0	0	0	0	505	562	496	
12	0	0	0	0	505	563	481	
13	0	0	0	0	506	566	501	
14	0	0	0	0	507	568	486	
15	0	0	0	0	507	571	498	
0	0	0	0	0	508	575	479	
1	0	0	0	0	510	579	585	
2	0	0	0	0	508	583	725	
3	0	0	0	0	507	587	722	
4	0	0	0	0	507	591	534	
5	0	0	0	0	507	594	486	
6	0	0	0	0	508	597	457	
7	0	0	0	0	510	600	476	
8	0	0	0	0	511	603	467	
9	0	0	0	0	512	605	483	
10	0	0	0	0	511	607	482	
11	0	0	0	0	510	608	502	
12	0	0	0	0	510	610	492	
13	0	0	0	0	510	610	509	
14	0	0	0	0	508	610	496	
15	0	0	0	0	507	608	521	
0	0	0	0	0	507	607	511	
1	0	0	0	0	507	605	528	
2	0	0	0	0	507	602	516	
3	0	0	0	0	509	599	526	
4	0	0	0	0	509	595	518	
5	0	0	0	0	509	590	537	
6	0	0	0	0	511	586	526	
7	0	0	0	0	511	581	539	
8	0	0	0	0	509	577	522	
9	0	0	0	0	506	572	536	
10	0	0	0	0	506	567	520	
11	0	0	0	0	507	561	536	
12	0	0	0	0	508	556	519	
13	0	0	0	0	511	550	525	
14	0	0	0	0	512	544	516	
15	0	0	0	0	514	538	523	
0	0	0	0	0	517	532	496	
1	0	0	0	0	518	526	507	
2	0	0	0	0	520	519	485	
3	0	0	0	0	523	513	491	
4	0	0	0	0	525	507	459	
5	0	0	0	0	528	501	460	
6	0	0	0	0	529	494	446	
7	0	0	0	0	533	488	467	
8	0	0	0	0	536	482	455	
9	0	0	0	0	537	476	461	
10	0	0	0	0	538	470	459	
11	0	0	0	0	539	463	469	
12	0	0	0	0	540	458	460	
13	0	0	0	0	541	452	473	
14	0	0	0	0	540	447	474	
15	0	0	0	0	541	441	492	
0	0	0	0	0	541	435	484	
1	0	0	0	0	541	430	495	
2	0	0	0	0	540	424	487	
3	0	0	0	0	543	419	508	
4	0	0	0	0	544	413	502	
5	0	0	0	0	545	407	513	
6	0	0	0	0	546	401	503	
7	0	0	0	0	546	395	512	
8	0	0	0	0	545	390	483	
9	0	0	0	0	544	384	524	
10	0	0	0	0	543	378	499	
11	0	0	0	0	542	374	507	
12	0	0	0	0	541	369	497	
13	0	0	0	0	539	365	511	
14	0	0	0	0	537	360	495	
15	0	0	0	0	537	355	508	
0	0	0	0	0	537	350	471	
1	0	0	0	0	536	344	504	
2	0	0	0	0	535	338	490	
3	0	0	0	0	534	332	497	
4	0	0	0	0	533	327	495	
5	0	0	0	0	532	322	508	
6	0	0	0	0	530	318	491	
7	0	0	0	0	529	313	510	
8	0	0	0	0	528	310	494	
9	0	0	0	0	526	306	505	
10	0	0	0	0	525	302	503	
11	0	0	0	0	525	300	506	
12	0	0	0	0	526	296	489	
13	0	0	0	0	526	293	514	
14	0	0	0	0	526	292	515	
15	0	0	0	0	526	290	519	
0	0	0	0	0	527	288	502	
1	0	0	0	0	527	287	517	
2	0	0	0	0	525	287	510	
3	0	0	0	0	525	286	529	
4	0	0	0	0	524	284	508	
5	0	0	0	0	526	284	525	
6	0	0	0	0	525	283	503	
7	0	0	0	0	524	283	528	
8	0	0	0	0	524	283	504	
9	0	0	0	0	522	283	515	
10	0	0	0	0	521	283	494	
11	0	0	0	0	523	283	518	
12	0	0	0	0	524	283	512	
13	0	0	0	0	524	284	511	
14	0	0	0	0	523	284	495	
15	0	0	0	0	522	284	513	
0	0	0	0	0	523	286	508	
1	0	0	0	0	522	288	526	
2	0	0	0	0	522	290	511	
3	0	0	0	0	522	292	539	
4	0	0	0	0	523	295	527	
5	0	0	0	0	521	297	544	
6	0	0	0	0	519	300	540	
7	0	0	0	0	518	303	537	
8	0	0	0	0	519	306	521	
9	0	0	0	0	518	309	485	
10	0	0	0	0	519	312	457	
11	0	0	0	0	518	316	471	
12	0	0	0	0	518	319	469	
13	0	0	0	0	517	323	488	
14	0	0	0	0	516	326	478	
15	0	0	0	0	517	329	479	
0	0	0	0	0	518	332	515	
1	0	0	0	0	518	335	685	
2	0	0	0	0	518	338	726	
3	0	0	0	0	519	341	583	
4	0	0	0	0	520	343	447	
5	0	0	0	0	519	346	443	
6	0	0	0	0	519	347	450	
7	0	0	0	0	519	349	469	
8	0	0	0	0	519	350	462	
9	0	0	0	0	518	351	481	
10	0	0	0	0	517	352	479	
11	0	0	0	0	516	352	495	
12	0	0	0	0	518	353	487	
13	0	0	0	0	519	353	508	
14	0	0	0	0	518	353	481	
15	0	0	0	0	518	352	507	
0	0	0	0	0	517	352	496	
1	0	0	0	0	516	350	509	
2	0	0	0	0	515	348	504	
3	0	0	0	0	513	346	519	
4	0	0	0	0	514	343	505	
5	0	0	0	0	513	340	525	
6	0	0	0	0	511	335	516	
7	0	0	0	0	511	331	531	
8	0	0	0	0	511	326	524	
9	0	0	0	0	511	321	543	
10	0	0	0	0	511	316	526	
11	0	0	0	0	512	311	548	
12	0	0	0	0	517	307	528	
13	0	0	0	0	520	301	543	
14	0	0	0	0	524	296	514	
15	0	0	0	0	527	291	530	
0	0	0	0	0	531	285	523	
1	0	0	0	0	534	280	524	
2	0	0	0	0	536	276	502	
3	0	0	0	0	539	270	505	
4	0	0	0	0	543	266	482	
5	0	0	0	0	548	261	483	
6	0	0	0	0	551	255	472	
7	0	0	0	0	553	249	490	
8	0	0	0	0	556	245	479	
9	0	0	0	0	556	238	492	
10	0	0	0	0	556	233	482	
11	0	0	0	0	555	228	499	
12	0	0	0	0	554	221	487	
13	0	0	0	0	552	216	509	
14	0	0	0	0	551	209	496	
15	0	0	0	0	550	205	519	
0	0	0	0	0	549	199	512	
1	0	0	0	0	548	193	528	
2	0	0	0	0	550	188	519	
3	0	0	0	0	552	181	538	
4	0	0	0	0	554	174	525	
5	0	0	0	0	557	168	534	
6	0	0	0	0	559	161	525	
7	0	0	0	0	559	154	543	
8	0	0	0	0	558	147	524	
9	0	0	0	0	559	142	535	
10	0	0	0	0	557	136	523	
11	0	0	0	0	555	129	531	
12	0	0	0	0	552	121	514	
13	0	0	0	0	551	115	531	
14	0	0	0	0	548	110	518	
15	0	0	0	0	545	102	527	
0	0	0	0	0	544	99	512	
1	0	0	0	0	542	96	524	
2	0	0	0	0	539	92	514	
3	0	0	0	0	539	94	526	
4	0	0	0	0	537	93	511	
5	0	0	0	0	536	96	525	
6	0	0	0	0	538	96	513	
7	0	0	0	0	538	100	529	
8	0	0	0	0	539	103	512	
9	0	0	0	0	537	105	530	
10	0	0	0	0	534	112	515	
11	0	0	0	0	533	117	528	
12	0	0	0	0	532	124	518	
13	0	0	0	0	532	134	531	
14	0	0	0	0	532	140	520	
15	0	0	0	0	531	151	539	
0	0	0	0	0	531	160	522	
1	0	0	0	0	531	169	541	
2	0	0	0	0	531	179	521	
3	0	0	0	0	530	189	534	
4	0	0	0	0	530	198	513	
5	0	0	0	0	528	208	522	
6	0	0	0	0	525	219	504	
7	0	0	0	0	525	227	522	
8	0	0	0	0	524	236	509	
9	0	0	0	0	524	244	522	
10	0	0	0	0	524	253	497	
11	0	0	0	0	523	260	526	
12	0	0	0	0	523	266	505	
13	0	0	0	0	521	273	521	
14	0	0	0	0	520	279	505	
15	0	0	0	0	520	285	525	
0	0	0	0	0	519	292	513	
1	0	0	0	0	520	299	527	
2	0	0	0	0	521	307	508	
3	0	0	0	0	522	314	527	
4	0	0	0	0	524	319	505	
5	0	0	0	0	524	326	528	
6	0	0	0	0	523	331	507	
7	0	0	0	0	522	335	524	
8	0	0	0	0	524	340	511	
9	0	0	0	0	524	344	533	
10	0	0	0	0	523	348	526	
11	0	0	0	0	521	351	550	
12	0	0	0	0	520	354	554	
13	0	0	0	0	519	356	561	
14	0	0	0	0	519	358	540	
15	0	0	0	0	517	359	530	
0	0	0	0	0	517	360	482	
1	0	0	0	0	515	360	491	
2	0	0	0	0	514	361	477	
3	0	0	0	0	513	361	490	
4	0	0	0	0	512	362	484	
5	0	0	0	0	513	361	497	
6	0	0	0	0	513	362	467	
7	0	0	0	0	512	363	565	
8	0	0	0	0	513	364	696	
9	0	0	0	0	512	364	695	
10	0	0	0	0	511	365	495	
11	0	0	0	0	511	366	461	
12	0	0	0	0	510	366	411	
13	0	0	0	0	510	366	435	
14	0	0	0	0	509	366	423	
15	0	0	0	0	509	368	453	
0	0	0	0	0	510	369	444	
1	0	0	0	0	511	371	467	
2	0	0	0	0	510	373	455	
3	0	0	0	0	510	374	477	
4	0	0	0	0	509	375	466	
5	0	0	0	0	509	375	488	
6	0	0	0	0	509	374	470	
7	0	0	0	0	510	374	493	
8	0	0	0	0	511	371	477	
9	0	0	0	0	512	370	495	
10	0	0	0	0	511	368	482	
11	0	0	0	0	511	367	507	
12	0	0	0	0	512	364	491	
13	0	0	0	0	511	361	513	
14	0	0	0	0	510	358	499	
15	0	0	0	0	510	354	517	
0	0	0	0	0	509	351	498	
1	0	0	0	0	508	346	515	
2	0	0	0	0	508	342	490	
3	0	0	0	0	509	338	512	
4	0	0	0	0	512	333	489	
5	0	0	0	0	515	329	503	
6	0	0	0	0	519	325	490	
7	0	0	0	0	523	322	501	
8	0	0	0	0	527	317	475	
9	0	0	0	0	532	313	483	
10	0	0	0	0	536	311	455	
11	0	0	0	0	540	309	460	
12	0	0	0	0	544	307	441	
13	0	0	0	0	548	305	470	
14	0	0	0	0	549	305	452	
15	0	0	0	0	550	303	478	
0	0	0	0	0	550	302	457	
1	0	0	0	0	551	301	486	
2	0	0	0	0	549	300	478	
3	0	0	0	0	547	300	510	
4	0	0	0	0	546	300	483	
5	0	0	0	0	545	301	508	
6	0	0	0	0	546	300	503	
7	0	0	0	0	545	302	524	
8	0	0	0	0	544	304	506	
9	0	0	0	0	543	308	516	
10	0	0	0	0	541	311	506	
11	0	0	0	0	541	314	524	
12	0	0	0	0	543	319	513	
13	0	0	0	0	543	322	528	
14	0	0	0	0	544	328	505	
15	0	0	0	0	544	332	533	
0	0	0	0	0	544	337	503	
1	0	0	0	0	543	342	512	
2	0	0	0	0	542	346	506	
3	0	0	0	0	540	350	514	
4	0	0	0	0	539	353	499	
5	0	0	0	0	535	356	502	
6	0	0	0	0	532	359	492	
7	0	0	0	0	531	362	524	
8	0	0	0	0	531	364	506	
9	0	0	0	0	531	368	523	
10	0	0	0	0	530	371	498	
11	0	0	0	0	531	376	527	
12	0	0	0	0	531	379	506	
13	0	0	0	0	532	384	517	
14	0	0	0	0	531	387	513	
15	0	0	0	0	532	391	528	
0	0	0	0	0	532	395	515	
1	0	0	0	0	532	399	535	
2	0	0	0	0	531	404	519	
3	0	0	0	0	529	408	546	
4	0	0	0	0	527	412	520	
5	0	0	0	0	523	415	543	
6	0	0	0	0	521	419	516	
7	0	0	0	0	519	422	547	
8	0	0	0	0	517	425	521	
9	0	0	0	0	516	428	539	
10	0	0	0	0	516	430	519	
11	0	0	0	0	516	433	527	
12	0	0	0	0	515	435	517	
13	0	0	0	0	514	437	533	
14	0	0	0	0	514	439	503	
15	0	0	0	0	515	440	526	
0	0	0	0	0	516	443	503	
1	0	0	0	0	517	444	522	
2	0	0	0	0	519	446	508	
3	0	0	0	0	519	448	520	
4	0	0	0	0	519	449	501	
5	0	0	0	0	518	451	519	
6	0	0	0	0	516	453	518	
7	0	0	0	0	515	454	549	
8	0	0	0	0	515	455	531	
9	0	0	0	0	515	455	564	
10	0	0	0	0	515	455	535	
11	0	0	0	0	516	454	532	
12	0	0	0	0	515	452	471	
13	0	0	0	0	515	450	485	
14	0	0	0	0	515	448	470	
15	0	0	0	0	515	446	488	
0	0	0	0	0	515	444	477	
1	0	0	0	0	515	442	503	
2	0	0	0	0	513	439	477	
3	0	0	0	0	514	437	490	
4	0	0	0	0	514	435	611	
5	0	0	0	0	513	433	736	
6	0	0	0	0	511	430	641	
7	0	0	0	0	512	428	493	
8	0	0	0	0	512	425	446	
9	0	0	0	0	511	422	457	
10	0	0	0	0	511	418	453	
11	0	0	0	0	509	414	469	
12	0	0	0	0	508	411	456	
13	0	0	0	0	508	407	489	
14	0	0	0	0	507	402	481	
15	0	0	0	0	505	397	504	
0	0	0	0	0	504	392	491	
1	0	0	0	0	503	388	515	
2	0	0	0	0	501	384	500	
3	0	0	0	0	501	379	529	
4	0	0	0	0	500	376	502	
5	0	0	0	0	499	372	534	
6	0	0	0	0	500	368	515	
7	0	0	0	0	501	365	541	
8	0	0	0	0	502	362	515	
9	0	0	0	0	503	359	539	
10	0	0	0	0	503	356	526	
11	0	0	0	0	502	355	546	
12	0	0	0	0	501	353	531	
13	0	0	0	0	500	351	542	
14	0	0	0	0	499	349	532	
15	0	0	0	0	500	347	551	
0	0	0	0	0	502	344	529	
1	0	0	0	0	504	342	541	
2	0	0	0	0	510	340	510	
3	0	0	0	0	514	338	536	
4	0	0	0	0	518	336	509	
5	0	0	0	0	521	335	519	
6	0	0	0	0	524	333	489	
7	0	0	0	0	527	332	492	
8	0	0	0	0	528	331	475	
9	0	0	0	0	531	330	487	
10	0	0	0	0	533	328	467	
11	0	0	0	0	534	327	483	
12	0	0	0	0	534	327	475	
13	0	0	0	0	535	326	493	
14	0	0	0	0	536	325	476	
15	0	0	0	0	537	326	499	
0	0	0	0	0	539	325	495	
1	0	0	0	0	539	326	514	
2	0	0	0	0	539	326	495	
3	0	0	0	0	539	326	526	
4	0	0	0	0	539	326	512	
5	0	0	0	0	538	327	528	
6	0	0	0	0	538	326	515	
7	0	0	0	0	536	327	539	
8	0	0	0	0	534	327	516	
9	0	0	0	0	531	326	535	
10	0	0	0	0	531	326	513	
11	0	0	0	0	528	326	531	
12	0	0	0	0	526	324	509	
13	0	0	0	0	526	323	525	
14	0	0	0	0	524	322	501	
15	0	0	0	0	525	321	523	
0	0	0	0	0	523	319	499	
1	0	0	0	0	523	318	516	
2	0	0	0	0	522	316	498	
3	0	0	0	0	521	315	517	
4	0	0	0	0	521	313	498	
5	0	0	0	0	519	312	512	
6	0	0	0	0	519	310	499	
7	0	0	0	0	517	310	513	
8	0	0	0	0	516	307	494	
9	0	0	0	0	515	306	512	
10	0	0	0	0	516	305	498	
11	0	0	0	0	516	303	518	
12	0	0	0	0	517	302	492	
13	0	0	0	0	516	300	510	
14	0	0	0	0	515	299	487	
15	0	0	0	0	514	298	516	
0	0	0	0	0	513	297	499	
1	0	0	0	0	512	295	516	
2	0	0	0	0	511	295	490	
3	0	0	0	0	508	295	525	
4	0	0	0	0	507	294	504	
5	0	0	0	0	507	295	521	
6	0	0	0	0	508	295	507	
7	0	0	0	0	508	296	526	
8	0	0	0	0	507	298	504	
9	0	0	0	0	506	300	526	
10	0	0	0	0	507	302	503	
11	0	0	0	0	508	305	524	
12	0	0	0	0	509	308	495	
13	0	0	0	0	509	312	524	
14	0	0	0	0	510	318	505	
15	0	0	0	0	509	322	521	
0	0	0	0	0	508	329	498	
1	0	0	0	0	506	335	517	
2	0	0	0	0	506	343	504	
3	0	0	0	0	507	351	524	
4	0	0	0	0	505	359	499	
5	0	0	0	0	505	368	520	
6	0	0	0	0	505	377	498	
7	0	0	0	0	505	385	522	
8	0	0	0	0	506	395	502	
9	0	0	0	0	505	404	525	
10	0	0	0	0	506	414	504	
11	0	0	0	0	505	424	521	
12	0	0	0	0	505	434	503	
13	0	0	0	0	505	444	525	
14	0	0	0	0	504	454	506	
15	0	0	0	0	504	464	533	
0	0	0	0	0	504	473	526	
1	0	0	0	0	504	482	549	
2	0	0	0	0	504	490	535	
3	0	0	0	0	504	499	568	
4	0	0	0	0	503	506	536	
5	0	0	0	0	502	514	547	
6	0	0	0	0	501	521	496	
7	0	0	0	0	500	528	499	
8	0	0	0	0	500	536	471	
9	0	0	0	0	500	543	490	
10	0	0	0	0	500	550	469	
11	0	0	0	0	501	556	502	
12	0	0	0	0	502	563	472	
13	0	0	0	0	500	569	504	
14	0	0	0	0	498	575	609	
15	0	0	0	0	496	582	741	
0	0	0	0	0	496	587	643	
1	0	0	0	0	496	593	508	
2	0	0	0	0	495	598	449	
3	0	0	0	0	496	602	468	
4	0	0	0	0	496	606	454	
5	0	0	0	0	495	610	476	
6	0	0	0	0	495	613	466	
7	0	0	0	0	495	617	496	
8	0	0	0	0	496	620	475	
9	0	0	0	0	498	624	500	
10	0	0	0	0	500	627	484	
11	0	0	0	0	501	629	517	
12	0	0	0	0	500	631	492	
13	0	0	0	0	501	633	519	
14	0	0	0	0	502	634	496	
15	0	0	0	0	503	635	517	
0	0	0	0	0	503	636	507	
1	0	0	0	0	503	637	528	
2	0	0	0	0	503	637	508	
3	0	0	0	0	502	638	536	
4	0	0	0	0	501	638	510	
5	0	0	0	0	500	639	539	
6	0	0	0	0	500	639	526	
7	0	0	0	0	500	640	552	
8	0	0	0	0	499	640	520	
9	0	0	0	0	499	641	548	
10	0	0	0	0	499	641	521	
11	0	0	0	0	500	641	540	
12	0	0	0	0	501	641	505	
13	0	0	0	0	503	641	530	
14	0	0	0	0	506	642	507	
15	0	0	0	0	508	641	518	
0	0	0	0	0	509	641	491	
1	0	0	0	0	512	641	498	
2	0	0	0	0	514	641	462	
3	0	0	0	0	516	641	491	
4	0	0	0	0	518	640	448	
5	0	0	0	0	519	640	489	
6	0	0	0	0	520	640	457	
7	0	0	0	0	521	639	489	
8	0	0	0	0	521	639	467	
9	0	0	0	0	520	639	497	
10	0	0	0	0	520	639	472	
11	0	0	0	0	522	639	510	
12	0	0	0	0	522	639	484	
13	0	0	0	0	522	639	520	
14	0	0	0	0	523	640	505	
15	0	0	0	0	522	640	525	
0	0	0	0	0	523	641	504	
1	0	0	0	0	521	641	526	
2	0	0	0	0	520	641	508	
3	0	0	0	0	519	640	526	
4	0	0	0	0	518	640	503	
5	0	0	0	0	517	639	528	
6	0	0	0	0	518	638	504	
7	0	0	0	0	518	637	523	
8	0	0	0	0	518	634	499	
9	0	0	0	0	517	631	519	
10	0	0	0	0	516	627	493	
11	0	0	0	0	516	621	526	
12	0	0	0	0	516	615	496	
13	0	0	0	0	518	610	517	
14	0	0	0	0	518	603	495	
15	0	0	0	0	517	595	520	
0	0	0	0	0	515	586	492	
1	0	0	0	0	513	577	525	
2	0	0	0	0	511	568	499	
3	0	0	0	0	511	558	517	
4	0	0	0	0	510	549	489	
5	0	0	0	0	508	539	510	
6	0	0	0	0	508	529	493	
7	0	0	0	0	508	520	520	
8	0	0	0	0	508	511	483	
9	0	0	0	0	509	504	521	
10	0	0	0	0	511	496	497	
11	0	0	0	0	513	491	526	
12	0	0	0	0	514	486	492	
13	0	0	0	0	513	481	518	
14	0	0	0	0	512	478	489	
15	0	0	0	0	510	475	507	
0	0	0	0	0	509	472	484	
1	0	0	0	0	508	469	508	
2	0	0	0	0	508	466	484	
3	0	0	0	0	508	464	514	
4	0	0	0	0	507	462	494	
5	0	0	0	0	508	460	500	
6	0	0	0	0	508	459	488	
7	0	0	0	0	508	458	523	
8	0	0	0	0	507	458	489	
9	0	0	0	0	505	457	514	
10	0	0	0	0	504	457	489	
11	0	0	0	0	504	456	500	
12	0	0	0	0	503	457	475	
13	0	0	0	0	502	456	509	
14	0	0	0	0	502	455	492	
15	0	0	0	0	503	454	520	
0	0	0	0	0	502	453	523	
1	0	0	0	0	502	452	548	
2	0	0	0	0	502	451	518	
3	0	0	0	0	504	452	534	
4	0	0	0	0	505	454	496	
5	0	0	0	0	505	457	479	
6	0	0	0	0	503	461	465	
7	0	0	0	0	503	465	473	
8	0	0	0	0	503	470	447	
9	0	0	0	0	504	474	486	
10	0	0	0	0	504	477	462	
11	0	0	0	0	505	478	463	
12	0	0	0	0	507	478	497	
13	0	0	0	0	507	476	674	
14	0	0	0	0	507	472	703	
15	0	0	0	0	507	468	538	
0	0	0	0	0	508	464	419	
1	0	0	0	0	507	459	428	
2	0	0	0	0	507	455	412	
3	0	0	0	0	507	449	436	
4	0	0	0	0	507	445	432	
5	0	0	0	0	508	441	454	
6	0	0	0	0	508	436	428	
7	0	0	0	0	507	430	464	
8	0	0	0	0	504	421	459	
9	0	0	0	0	502	411	477	
10	0	0	0	0	500	399	462	
11	0	0	0	0	501	385	481	
12	0	0	0	0	502	371	463	
13	0	0	0	0	504	355	492	
14	0	0	0	0	505	341	467	
15	0	0	0	0	504	327	487	
0	0	0	0	0	502	312	461	
1	0	0	0	0	501	299	480	
2	0	0	0	0	501	286	457	
3	0	0	0	0	499	275	495	
4	0	0	0	0	495	265	475	
5	0	0	0	0	494	255	517	
6	0	0	0	0	492	248	492	
7	0	0	0	0	491	243	513	
8	0	0	0	0	490	239	490	
9	0	0	0	0	490	238	519	
10	0	0	0	0	491	235	495	
11	0	0	0	0	494	233	520	
12	0	0	0	0	496	231	500	
13	0	0	0	0	499	228	520	
14	0	0	0	0	503	224	485	
15	0	0	0	0	506	217	505	
0	0	0	0	0	508	212	470	
1	0	0	0	0	511	208	494	
2	0	0	0	0	514	203	467	
3	0	0	0	0	516	200	480	
4	0	0	0	0	518	197	473	
5	0	0	0	0	519	195	497	
6	0	0	0	0	521	195	487	
7	0	0	0	0	521	196	495	
8	0	0	0	0	522	202	477	
9	0	0	0	0	521	207	515	
10	0	0	0	0	523	214	505	
11	0	0	0	0	524	222	527	
12	0	0	0	0	524	230	515	
13	0	0	0	0	525	239	534	
14	0	0	0	0	525	247	528	
15	0	0	0	0	527	255	561	
0	0	0	0	0	527	263	542	
1	0	0	0	0	527	270	574	
2	0	0	0	0	526	276	556	
3	0	0	0	0	527	283	582	
4	0	0	0	0	528	290	562	
5	0	0	0	0	528	296	579	
6	0	0	0	0	527	303	563	
7	0	0	0	0	528	310	582	
8	0	0	0	0	527	315	564	
9	0	0	0	0	527	321	580	
10	0	0	0	0	525	327	556	
11	0	0	0	0	525	334	575	
12	0	0	0	0	525	339	556	
13	0	0	0	0	525	344	575	
14	0	0	0	0	524	349	547	
15	0	0	0	0	521	352	565	
0	0	0	0	0	519	355	540	
1	0	0	0	0	516	357	557	
2	0	0	0	0	512	359	540	
3	0	0	0	0	511	360	551	
4	0	0	0	0	511	361	524	
5	0	0	0	0	510	363	547	
6	0	0	0	0	510	363	527	
7	0	0	0	0	511	364	547	
8	0	0	0	0	511	364	529	
9	0	0	0	0	511	365	546	
10	0	0	0	0	511	364	534	
11	0	0	0	0	511	364	550	
12	0	0	0	0	511	363	525	
13	0	0	0	0	511	360	546	
14	0	0	0	0	512	358	521	
15	0	0	0	0	514	355	543	
0	0	0	0	0	516	350	516	
1	0	0	0	0	516	346	539	
2	0	0	0	0	514	341	515	
3	0	0	0	0	515	336	534	
4	0	0	0	0	512	332	511	
5	0	0	0	0	510	327	533	
6	0	0	0	0	510	323	514	
7	0	0	0	0	510	319	530	
8	0	0	0	0	510	313	504	
9	0	0	0	0	508	310	531	
10	0	0	0	0	508	307	511	
11	0	0	0	0	508	303	531	
12	0	0	0	0	507	301	506	
13	0	0	0	0	507	299	532	
14	0	0	0	0	507	298	512	
15	0	0	0	0	508	299	534	
0	0	0	0	0	508	297	508	
1	0	0	0	0	509	298	529	
2	0	0	0	0	511	299	510	
3	0	0	0	0	511	299	544	
4	0	0	0	0	510	299	524	
5	0	0	0	0	510	301	556	
6	0	0	0	0	508	301	546	
7	0	0	0	0	505	302	552	
8	0	0	0	0	501	303	513	
9	0	0	0	0	498	304	504	
10	0	0	0	0	495	305	461	
11	0	0	0	0	492	307	484	
12	0	0	0	0	489	310	464	
13	0	0	0	0	487	312	491	
14	0	0	0	0	485	317	470	
15	0	0	0	0	485	321	485	
0	0	0	0	0	485	326	469	
1	0	0	0	0	487	332	614	
2	0	0	0	0	488	339	704	
3	0	0	0	0	489	345	657	
4	0	0	0	0	491	353	464	
5	0	0	0	0	492	359	462	
6	0	0	0	0	492	367	433	
7	0	0	0	0	494	374	463	
8	0	0	0	0	495	382	446	
9	0	0	0	0	495	390	472	
10	0	0	0	0	496	398	457	
11	0	0	0	0	498	405	485	
12	0	0	0	0	500	412	473	
13	0	0	0	0	502	419	500	
14	0	0	0	0	504	427	481	
15	0	0	0	0	506	433	513	
0	0	0	0	0	507	439	492	
1	0	0	0	0	508	446	517	
2	0	0	0	0	508	451	498	
3	0	0	0	0	508	456	527	
4	0	0	0	0	508	462	511	
5	0	0	0	0	507	466	529	
6	0	0	0	0	506	471	511	
7	0	0	0	0	505	475	541	
8	0	0	0	0	503	478	517	
9	0	0	0	0	501	482	539	
10	0	0	0	0	501	485	514	
11	0	0	0	0	500	488	538	
12	0	0	0	0	502	491	514	
13	0	0	0	0	501	494	538	
14	0	0	0	0	501	496	515	
15	0	0	0	0	502	498	537	
0	0	0	0	0	504	500	512	
1	0	0	0	0	507	502	531	
2	0	0	0	0	510	503	498	
3	0	0	0	0	512	504	511	
4	0	0	0	0	512	506	470	
5	0	0	0	0	515	508	486	
6	0	0	0	0	518	508	457	
7	0	0	0	0	521	509	479	
8	0	0	0	0	523	510	452	
9	0	0	0	0	525	511	480	
10	0	0	0	0	526	511	463	
11	0	0	0	0	527	511	487	
12	0	0	0	0	528	511	470	
13	0	0	0	0	529	510	498	
14	0	0	0	0	529	510	484	
15	0	0	0	0	529	509	517	
0	0	0	0	0	528	509	491	
1	0	0	0	0	527	508	516	
2	0	0	0	0	527	508	492	
3	0	0	0	0	527	508	520	
4	0	0	0	0	527	508	499	
5	0	0	0	0	527	507	516	
6	0	0	0	0	526	507	503	
7	0	0	0	0	526	507	530	
8	0	0	0	0	526	507	503	
9	0	0	0	0	526	507	527	
10	0	0	0	0	526	506	510	
11	0	0	0	0	525	506	536	
12	0	0	0	0	525	506	509	
13	0	0	0	0	525	506	528	
14	0	0	0	0	524	505	494	
15	0	0	0	0	523	505	524	
0	0	0	0	0	523	505	491	
1	0	0	0	0	523	505	514	
2	0	0	0	0	521	504	489	
3	0	0	0	0	521	503	516	
4	0	0	0	0	519	503	491	
5	0	0	0	0	519	502	513	
6	0	0	0	0	519	502	486	
7	0	0	0	0	521	502	516	
8	0	0	0	0	523	502	486	
9	0	0	0	0	523	503	514	
10	0	0	0	0	522	503	493	
11	0	0	0	0	519	504	528	
12	0	0	0	0	518	504	499	
13	0	0	0	0	518	505	523	
14	0	0	0	0	519	506	499	
15	0	0	0	0	519	507	527	
0	0	0	0	0	519	508	503	
1	0	0	0	0	519	511	529	
2	0	0	0	0	519	513	504	
3	0	0	0	0	519	517	534	
4	0	0	0	0	519	520	505	
5	0	0	0	0	517	524	528	
6	0	0	0	0	515	527	507	
7	0	0	0	0	513	530	531	
8	0	0	0	0	511	534	505	
9	0	0	0	0	508	537	528	
10	0	0	0	0	508	542	503	
11	0	0	0	0	508	547	529	
12	0	0	0	0	509	552	517	
13	0	0	0	0	509	558	544	
14	0	0	0	0	509	563	528	
15	0	0	0	0	508	570	570	
0	0	0	0	0	508	576	534	
1	0	0	0	0	508	583	547	
2	0	0	0	0	509	590	493	
3	0	0	0	0	510	595	499	
4	0	0	0	0	511	602	467	
5	0	0	0	0	511	607	492	
6	0	0	0	0	512	612	466	
7	0	0	0	0	513	616	505	
8	0	0	0	0	515	621	471	
9	0	0	0	0	515	625	487	
10	0	0	0	0	515	629	547	
11	0	0	0	0	514	632	733	
12	0	0	0	0	512	634	691	
13	0	0	0	0	512	636	529	
14	0	0	0	0	511	636	446	
15	0	0	0	0	511	635	453	
0	0	0	0	0	512	634	434	
1	0	0	0	0	512	632	467	
2	0	0	0	0	512	629	446	
3	0	0	0	0	513	627	480	
4	0	0	0	0	513	624	464	
5	0	0	0	0	512	619	498	
6	0	0	0	0	510	615	478	
7	0	0	0	0	509	611	511	
8	0	0	0	0	508	605	488	
9	0	0	0	0	507	600	517	
10	0	0	0	0	507	593	496	
11	0	0	0	0	507	587	518	
12	0	0	0	0	506	581	499	
13	0	0	0	0	505	576	524	
14	0	0	0	0	504	570	504	
15	0	0	0	0	504	565	529	
0	0	0	0	0	505	559	502	
1	0	0	0	0	506	553	531	
2	0	0	0	0	505	548	509	
3	0	0	0	0	505	542	527	
4	0	0	0	0	504	536	510	
5	0	0	0	0	505	530	537	
6	0	0	0	0	506	524	508	
7	0	0	0	0	507	518	526	
8	0	0	0	0	511	512	501	
9	0	0	0	0	514	506	528	
10	0	0	0	0	516	499	497	
11	0	0	0	0	519	494	509	
12	0	0	0	0	522	487	480	
13	0	0	0	0	526	482	481	
14	0	0	0	0	529	476	454	
15	0	0	0	0	531	470	472	
0	0	0	0	0	534	465	443	
1	0	0	0	0	536	460	472	
2	0	0	0	0	536	456	450	
3	0	0	0	0	536	451	484	
4	0	0	0	0	537	448	470	
5	0	0	0	0	536	444	490	
6	0	0	0	0	533	440	476	
7	0	0	0	0	533	437	500	
8	0	0	0	0	532	433	485	
9	0	0	0	0	531	431	511	
10	0	0	0	0	531	428	503	
11	0	0	0	0	530	426	529	
12	0	0	0	0	531	424	507	
13	0	0	0	0	532	423	526	
14	0	0	0	0	532	422	504	
15	0	0	0	0	534	421	528	
0	0	0	0	0	534	420	510	
1	0	0	0	0	533	420	524	
2	0	0	0	0	535	420	515	
3	0	0	0	0	535	420	532	
4	0	0	0	0	535	421	509	
5	0	0	0	0	535	421	532	
6	0	0	0	0	533	421	503	
7	0	0	0	0	533	421	528	
8	0	0	0	0	534	422	499	
9	0	0	0	0	533	422	527	
10	0	0	0	0	534	423	498	
11	0	0	0	0	533	424	535	
12	0	0	0	0	534	424	507	
13	0	0	0	0	534	425	533	
14	0	0	0	0	534	426	512	
15	0	0	0	0	533	427	533	
0	0	0	0	0	531	428	503	
1	0	0	0	0	531	429	528	
2	0	0	0	0	531	431	496	
3	0	0	0	0	531	432	525	
4	0	0	0	0	531	434	504	
5	0	0	0	0	530	436	523	
6	0	0	0	0	529	438	507	
7	0	0	0	0	527	440	533	
8	0	0	0	0	528	443	512	
9	0	0	0	0	527	444	529	
10	0	0	0	0	527	447	503	
11	0	0	0	0	527	449	531	
12	0	0	0	0	528	451	505	
13	0	0	0	0	528	454	524	
14	0	0	0	0	526	456	502	
15	0	0	0	0	524	459	520	
0	0	0	0	0	523	461	502	
1	0	0	0	0	521	463	534	
2	0	0	0	0	519	465	508	
3	0	0	0	0	518	467	526	
4	0	0	0	0	519	468	505	
5	0	0	0	0	520	470	527	
6	0	0	0	0	521	472	505	
7	0	0	0	0	523	473	523	
8	0	0	0	0	523	475	504	
9	0	0	0	0	522	476	525	
10	0	0	0	0	521	478	508	
11	0	0	0	0	522	479	529	
12	0	0	0	0	522	480	502	
13	0	0	0	0	521	482	528	
14	0	0	0	0	518	484	509	
15	0	0	0	0	517	486	526	
0	0	0	0	0	515	488	502	
1	0	0	0	0	515	490	520	
2	0	0	0	0	515	491	497	
3	0	0	0	0	513	493	525	
4	0	0	0	0	512	494	502	
5	0	0	0	0	513	496	522	
6	0	0	0	0	514	496	503	
7	0	0	0	0	515	498	524	
8	0	0	0	0	518	498	502	
9	0	0	0	0	518	500	535	
10	0	0	0	0	518	500	524	
11	0	0	0	0	519	501	554	
12	0	0	0	0	518	502	544	
13	0	0	0	0	517	502	556	
14	0	0	0	0	516	503	534	
15	0	0	0	0	517	504	531	
0	0	0	0	0	517	504	478	
1	0	0	0	0	516	504	503	
2	0	0	0	0	515	504	477	
3	0	0	0	0	514	504	505	
4	0	0	0	0	513	505	476	
5	0	0	0	0	513	505	510	
6	0	0	0	0	513	505	477	
7	0	0	0	0	513	507	532	
8	0	0	0	0	511	508	656	
9	0	0	0	0	511	508	758	
10	0	0	0	0	511	509	576	
11	0	0	0	0	510	509	478	
12	0	0	0	0	510	509	433	
13	0	0	0	0	510	507	460	
14	0	0	0	0	509	506	447	
15	0	0	0	0	509	504	468	
0	0	0	0	0	511	503	451	
1	0	0	0	0	512	501	477	
2	0	0	0	0	513	499	462	
3	0	0	0	0	513	496	492	
4	0	0	0	0	514	494	470	
5	0	0	0	0	513	491	497	
6	0	0	0	0	512	488	474	
7	0	0	0	0	511	485	505	
8	0	0	0	0	510	482	487	
9	0	0	0	0	510	478	508	
10	0	0	0	0	511	475	490	
11	0	0	0	0	510	472	518	
12	0	0	0	0	511	468	498	
13	0	0	0	0	510	465	525	
14	0	0	0	0	509	463	509	
15	0	0	0	0	509	460	534	
0	0	0	0	0	509	458	509	
1	0	0	0	0	508	455	539	
2	0	0	0	0	509	453	518	
3	0	0	0	0	511	450	541	
4	0	0	0	0	512	448	515	
5	0	0	0	0	514	446	535	
6	0	0	0	0	516	443	513	
7	0	0	0	0	521	441	534	
8	0	0	0	0	526	439	509	
9	0	0	0	0	529	437	525	
10	0	0	0	0	531	435	493	
11	0	0	0	0	535	433	491	
12	0	0	0	0	536	431	467	
13	0	0	0	0	537	429	484	
14	0	0	0	0	539	428	460	
15	0	0	0	0	540	426	485	
0	0	0	0	0	542	425	466	
1	0	0	0	0	543	424	494	
2	0	0	0	0	542	423	476	
3	0	0	0	0	541	423	508	
4	0	0	0	0	540	422	486	
5	0	0	0	0	540	422	515	
6	0	0	0	0	540	423	498	
7	0	0	0	0	542	423	524	
8	0	0	0	0	542	424	501	
9	0	0	0	0	543	425	527	
10	0	0	0	0	542	426	510	
11	0	0	0	0	542	427	532	
12	0	0	0	0	542	429	510	
13	0	0	0	0	542	431	536	
14	0	0	0	0	541	433	505	
15	0	0	0	0	540	435	527	
0	0	0	0	0	540	438	508	
1	0	0	0	0	540	441	531	
2	0	0	0	0	540	444	503	
3	0	0	0	0	540	447	525	
4	0	0	0	0	540	450	498	
5	0	0	0	0	539	453	523	
6	0	0	0	0	539	457	495	
7	0	0	0	0	537	460	519	
8	0	0	0	0	535	465	495	
9	0	0	0	0	532	468	522	
10	0	0	0	0	531	472	497	
11	0	0	0	0	531	476	524	
12	0	0	0	0	530	480	506	
13	0	0	0	0	530	484	527	
14	0	0	0	0	529	487	504	
15	0	0	0	0	529	491	523	
0	0	0	0	0	527	495	499	
1	0	0	0	0	528	498	519	
2	0	0	0	0	528	501	495	
3	0	0	0	0	529	505	515	
4	0	0	0	0	528	508	492	
5	0	0	0	0	527	513	519	
6	0	0	0	0	526	516	490	
7	0	0	0	0	524	519	518	
8	0	0	0	0	522	523	499	
9	0	0	0	0	522	527	522	
10	0	0	0	0	521	530	504	
11	0	0	0	0	520	533	525	
12	0	0	0	0	519	536	498	
13	0	0	0	0	518	539	527	
14	0	0	0	0	517	541	502	
15	0	0	0	0	517	543	527	
0	0	0	0	0	515	547	498	
1	0	0	0	0	516	550	519	
2	0	0	0	0	517	553	496	
3	0	0	0	0	517	556	523	
4	0	0	0	0	517	560	502	
5	0	0	0	0	516	563	523	
6	0	0	0	0	514	566	499	
7	0	0	0	0	513	569	528	
8	0	0	0	0	513	572	503	
9	0	0	0	0	514	575	526	
10	0	0	0	0	515	579	499	
11	0	0	0	0	514	581	520	
12	0	0	0	0	513	585	499	
13	0	0	0	0	512	588	526	
14	0	0	0	0	513	591	503	
15	0	0	0	0	513	594	530	
0	0	0	0	0	513	597	507	
1	0	0	0	0	512	600	532	
2	0	0	0	0	511	603	508	
3	0	0	0	0	510	606	534	
4	0	0	0	0	511	610	522	
5	0	0	0	0	512	614	561	
6	0	0	0	0	512	618	551	
7	0	0	0	0	512	623	574	
8	0	0	0	0	511	627	542	
9	0	0	0	0	510	632	541	
10	0	0	0	0	506	636	495	
11	0	0	0	0	507	641	503	
12	0	0	0	0	508	646	469	
13	0	0	0	0	507	652	498	
14	0	0	0	0	505	656	476	
15	0	0	0	0	507	662	501	
0	0	0	0	0	507	666	463	
1	0	0	0	0	507	671	511	
2	0	0	0	0	507	675	625	
3	0	0	0	0	506	679	743	
4	0	0	0	0	505	683	614	
5	0	0	0	0	503	687	507	
6	0	0	0	0	503	690	455	
7	0	0	0	0	502	692	471	
8	0	0	0	0	503	695	455	
9	0	0	0	0	502	697	486	
10	0	0	0	0	502	699	463	
11	0	0	0	0	502	702	485	
12	0	0	0	0	503	703	475	
13	0	0	0	0	503	706	507	
14	0	0	0	0	502	708	486	
15	0	0	0	0	501	710	512	
0	0	0	0	0	503	711	495	
1	0	0	0	0	503	711	520	
2	0	0	0	0	504	711	499	
3	0	0	0	0	505	711	524	
4	0	0	0	0	505	712	507	
5	0	0	0	0	504	712	531	
6	0	0	0	0	504	712	518	
7	0	0	0	0	502	712	537	
8	0	0	0	0	502	712	515	
9	0	0	0	0	500	712	544	
10	0	0	0	0	500	712	524	
11	0	0	0	0	500	713	546	
12	0	0	0	0	500	713	529	
13	0	0	0	0	498	712	551	
14	0	0	0	0	498	712	531	
15	0	0	0	0	500	712	548	
0	0	0	0	0	503	711	521	
1	0	0	0	0	504	710	539	
2	0	0	0	0	508	709	512	
3	0	0	0	0	512	707	529	
4	0	0	0	0	516	705	492	
5	0	0	0	0	521	702	498	
6	0	0	0	0	525	699	462	
7	0	0	0	0	527	696	488	
8	0	0	0	0	530	694	460	
9	0	0	0	0	530	690	493	
10	0	0	0	0	531	688	476	
11	0	0	0	0	532	685	500	
12	0	0	0	0	533	683	479	
13	0	0	0	0	534	681	501	
14	0	0	0	0	531	679	488	
15	0	0	0	0	529	677	516	
0	0	0	0	0	527	675	493	
1	0	0	0	0	526	674	519	
2	0	0	0	0	524	672	496	
3	0	0	0	0	523	671	514	
4	0	0	0	0	522	669	497	
5	0	0	0	0	520	668	521	
6	0	0	0	0	519	667	502	
7	0	0	0	0	519	665	523	
8	0	0	0	0	520	663	504	
9	0	0	0	0	519	661	526	
10	0	0	0	0	519	659	499	
11	0	0	0	0	519	657	526	
12	0	0	0	0	519	654	499	
13	0	0	0	0	519	650	519	
14	0	0	0	0	518	647	493	
15	0	0	0	0	516	643	516	
0	0	0	0	0	516	639	494	
1	0	0	0	0	517	635	511	
2	0	0	0	0	517	630	488	
3	0	0	0	0	519	625	509	
4	0	0	0	0	519	620	487	
5	0	0	0	0	519	615	504	
6	0	0	0	0	520	610	485	
7	0	0	0	0	519	605	506	
8	0	0	0	0	518	601	482	
9	0	0	0	0	516	596	502	
10	0	0	0	0	514	592	481	
11	0	0	0	0	512	587	501	
12	0	0	0	0	510	583	487	
13	0	0	0	0	507	578	506	
14	0	0	0	0	506	574	490	
15	0	0	0	0	507	570	513	
0	0	0	0	0	506	566	489	
1	0	0	0	0	505	563	510	
2	0	0	0	0	507	561	489	
3	0	0	0	0	508	558	518	
4	0	0	0	0	510	556	493	
5	0	0	0	0	509	555	513	
6	0	0	0	0	508	553	484	
7	0	0	0	0	508	552	517	
8	0	0	0	0	508	551	496	
9	0	0	0	0	507	551	508	
10	0	0	0	0	507	550	492	
11	0	0	0	0	507	549	513	
12	0	0	0	0	507	548	495	
13	0	0	0	0	506	547	513	
14	0	0	0	0	504	546	489	
15	0	0	0	0	501	546	512	
0	0	0	0	0	501	546	489	
1	0	0	0	0	501	545	512	
2	0	0	0	0	502	545	489	
3	0	0	0	0	502	546	507	
4	0	0	0	0	503	546	484	
5	0	0	0	0	503	547	523	
6	0	0	0	0	502	547	487	
7	0	0	0	0	502	547	512	
8	0	0	0	0	502	547	499	
9	0	0	0	0	502	546	517	
10	0	0	0	0	502	544	499	
11	0	0	0	0	502	542	522	
12	0	0	0	0	503	539	502	
13	0	0	0	0	503	536	525	
14	0	0	0	0	504	532	519	
15	0	0	0	0	503	528	564	
0	0	0	0	0	502	524	545	
1	0	0	0	0	501	519	564	
2	0	0	0	0	501	515	526	
3	0	0	0	0	500	512	506	
4	0	0	0	0	499	508	481	
5	0	0	0	0	498	504	485	
6	0	0	0	0	497	499	465	
7	0	0	0	0	497	494	483	
8	0	0	0	0	497	489	477	
9	0	0	0	0	498	485	494	
10	0	0	0	0	498	481	475	
11	0	0	0	0	499	477	587	
12	0	0	0	0	500	474	704	
13	0	0	0	0	500	470	707	
14	0	0	0	0	499	467	496	
15	0	0	0	0	499	464	468	
0	0	0	0	0	499	461	432	
1	0	0	0	0	500	458	462	
2	0	0	0	0	500	455	457	
3	0	0	0	0	501	453	481	
4	0	0	0	0	501	452	462	
5	0	0	0	0	500	450	492	
6	0	0	0	0	500	449	474	
7	0	0	0	0	497	448	508	
8	0	0	0	0	497	446	480	
9	0	0	0	0	496	445	504	
10	0	0	0	0	496	443	501	
11	0	0	0	0	496	441	520	
12	0	0	0	0	496	440	503	
13	0	0	0	0	497	438	515	
14	0	0	0	0	497	436	494	
15	0	0	0	0	498	434	536	
0	0	0	0	0	498	432	503	
1	0	0	0	0	497	431	531	
2	0	0	0	0	497	428	512	
3	0	0	0	0	497	426	534	
4	0	0	0	0	499	424	521	
5	0	0	0	0	500	421	533	
6	0	0	0	0	499	419	519	
7	0	0	0	0	498	416	549	
8	0	0	0	0	496	412	511	
9	0	0	0	0	494	410	536	
10	0	0	0	0	495	408	505	
11	0	0	0	0	496	406	508	
12	0	0	0	0	497	405	502	
13	0	0	0	0	500	404	508	
14	0	0	0	0	502	403	466	
15	0	0	0	0	506	402	484	
0	0	0	0	0	509	402	452	
1	0	0	0	0	511	403	469	
2	0	0	0	0	513	402	445	
3	0	0	0	0	515	402	475	
4	0	0	0	0	516	402	462	
5	0	0	0	0	516	403	485	
6	0	0	0	0	516	404	475	
7	0	0	0	0	516	406	491	
8	0	0	0	0	516	407	481	
9	0	0	0	0	515	409	500	
10	0	0	0	0	517	411	494	
11	0	0	0	0	517	413	509	
12	0	0	0	0	516	415	500	
13	0	0	0	0	516	417	520	
14	0	0	0	0	516	419	503	
15	0	0	0	0	516	421	520	
0	0	0	0	0	516	423	502	
1	0	0	0	0	516	424	521	
2	0	0	0	0	516	425	506	
3	0	0	0	0	517	425	519	
4	0	0	0	0	518	426	510	
5	0	0	0	0	516	427	521	
6	0	0	0	0	516	427	503	
7	0	0	0	0	517	427	524	
8	0	0	0	0	517	427	493	
9	0	0	0	0	515	426	520	
10	0	0	0	0	514	425	499	
11	0	0	0	0	513	424	508	
12	0	0	0	0	512	423	503	
13	0	0	0	0	510	422	517	
14	0	0	0	0	510	420	507	
15	0	0	0	0	511	418	524	
0	0	0	0	0	512	416	504	
1	0	0	0	0	513	414	526	
2	0	0	0	0	513	411	507	
3	0	0	0	0	514	409	528	
4	0	0	0	0	513	406	508	
5	0	0	0	0	513	404	525	
6	0	0	0	0	514	401	515	
7	0	0	0	0	513	399	531	
8	0	0	0	0	511	398	508	
9	0	0	0	0	509	396	530	
10	0	0	0	0	508	395	504	
11	0	0	0	0	507	393	527	
12	0	0	0	0	506	393	511	
13	0	0	0	0	506	393	534	
14	0	0	0	0	505	393	513	
15	0	0	0	0	506	394	535	
0	0	0	0	0	506	396	510	
1	0	0	0	0	504	398	526	
2	0	0	0	0	504	400	507	
3	0	0	0	0	504	402	523	
4	0	0	0	0	503	405	496	
5	0	0	0	0	504	407	523	
6	0	0	0	0	504	408	499	
7	0	0	0	0	504	409	512	
8	0	0	0	0	504	411	506	
9	0	0	0	0	504	411	517	
10	0	0	0	0	502	412	504	
11	0	0	0	0	502	412	524	
12	0	0	0	0	504	412	499	
13	0	0	0	0	504	412	527	
14	0	0	0	0	503	412	507	
15	0	0	0	0	503	411	529	
0	0	0	0	0	504	411	499	
1	0	0	0	0	503	410	530	
2	0	0	0	0	504	409	511	
3	0	0	0	0	504	409	525	
4	0	0	0	0	505	409	514	
5	0	0	0	0	504	410	531	
6	0	0	0	0	504	410	515	
7	0	0	0	0	505	410	534	
8	0	0	0	0	507	410	519	
9	0	0	0	0	507	411	558	
10	0	0	0	0	505	412	543	
11	0	0	0	0	504	412	574	
12	0	0	0	0	503	414	547	
13	0	0	0	0	500	415	528	
14	0	0	0	0	499	417	495	
15	0	0	0	0	498	419	496	
0	0	0	0	0	498	422	473	
1	0	0	0	0	497	424	496	
2	0	0	0	0	498	427	483	
3	0	0	0	0	497	430	504	
4	0	0	0	0	497	434	474	
5	0	0	0	0	497	437	535	
6	0	0	0	0	497	441	669	
7	0	0	0	0	498	445	743	
8	0	0	0	0	497	449	557	
9	0	0	0	0	497	453	485	
10	0	0	0	0	498	457	445	
11	0	0	0	0	499	461	474	
12	0	0	0	0	499	465	456	
13	0	0	0	0	500	470	487	
14	0	0	0	0	500	474	471	
15	0	0	0	0	499	479	500	
0	0	0	0	0	500	484	484	
1	0	0	0	0	500	490	509	
2	0	0	0	0	502	496	493	
3	0	0	0	0	503	504	522	
4	0	0	0	0	504	510	503	
5	0	0	0	0	504	516	528	
6	0	0	0	0	504	523	512	
7	0	0	0	0	502	529	534	
8	0	0	0	0	503	535	525	
9	0	0	0	0	502	541	543	
10	0	0	0	0	501	547	528	
11	0	0	0	0	499	552	542	
12	0	0	0	0	497	558	520	
13	0	0	0	0	496	564	540	
14	0	0	0	0	495	570	519	
15	0	0	0	0	494	575	546	
0	0	0	0	0	494	581	525	
1	0	0	0	0	494	585	543	
2	0	0	0	0	494	591	518	
3	0	0	0	0	495	595	542	
4	0	0	0	0	496	599	519	
5	0	0	0	0	498	604	530	
6	0	0	0	0	499	608	510	
7	0	0	0	0	500	612	521	
8	0	0	0	0	502	618	481	
9	0	0	0	0	504	623	496	
10	0	0	0	0	506	628	464	
11	0	0	0	0	509	633	473	
12	0	0	0	0	512	639	453	
13	0	0	0	0	513	644	477	
14	0	0	0	0	514	650	460	
15	0	0	0	0	515	655	492	
0	0	0	0	0	516	661	472	
1	0	0	0	0	516	667	486	
2	0	0	0	0	516	671	480	
3	0	0	0	0	516	677	502	
4	0	0	0	0	518	682	488	
5	0	0	0	0	518	687	509	
6	0	0	0	0	518	691	499	
7	0	0	0	0	517	696	528	
8	0	0	0	0	516	701	512	
9	0	0	0	0	515	706	539	
10	0	0	0	0	513	710	515	
11	0	0	0	0	512	715	531	
12	0	0	0	0	510	718	512	
13	0	0	0	0	510	722	528	
14	0	0	0	0	508	725	510	
15	0	0	0	0	508	728	528	
0	0	0	0	0	508	730	505	
1	0	0	0	0	510	732	525	
2	0	0	0	0	512	734	501	
3	0	0	0	0	512	735	515	
4	0	0	0	0	513	737	502	
5	0	0	0	0	513	738	516	
6	0	0	0	0	514	739	498	
7	0	0	0	0	512	739	521	
8	0	0	0	0	512	739	499	
9	0	0	0	0	510	739	515	
10	0	0	0	0	509	739	499	
11	0	0	0	0	507	738	516	
12	0	0	0	0	508	737	502	
13	0	0	0	0	507	736	517	
14	0	0	0	0	508	735	503	
15	0	0	0	0	508	734	520	
0	0	0	0	0	510	732	504	
1	0	0	0	0	511	729	518	
2	0	0	0	0	511	728	502	
3	0	0	0	0	511	726	518	
4	0	0	0	0	511	724	500	
5	0	0	0	0	511	721	518	
6	0	0	0	0	511	719	495	
7	0	0	0	0	512	717	520	
8	0	0	0	0	514	715	509	
9	0	0	0	0	515	712	519	
10	0	0	0	0	514	710	509	
11	0	0	0	0	513	708	521	
12	0	0	0	0	512	707	501	
13	0	0	0	0	510	705	523	
14	0	0	0	0	508	703	500	
15	0	0	0	0	508	702	511	
0	0	0	0	0	507	700	489	
1	0	0	0	0	507	698	512	
2	0	0	0	0	507	696	492	
3	0	0	0	0	505	694	516	
4	0	0	0	0	507	691	495	
5	0	0	0	0	507	689	508	
6	0	0	0	0	507	687	491	
7	0	0	0	0	507	684	499	
8	0	0	0	0	507	681	487	
9	0	0	0	0	508	678	505	
10	0	0	0	0	508	674	494	
11	0	0	0	0	507	671	519	
12	0	0	0	0	508	667	505	
13	0	0	0	0	508	664	532	
14	0	0	0	0	506	659	522	
15	0	0	0	0	505	656	537	
0	0	0	0	0	503	653	507	
1	0	0	0	0	501	649	503	
2	0	0	0	0	501	646	455	
3	0	0	0	0	500	643	463	
4	0	0	0	0	501	639	442	
5	0	0	0	0	501	636	466	
6	0	0	0	0	502	632	449	
7	0	0	0	0	502	628	470	
8	0	0	0	0	502	624	435	
9	0	0	0	0	502	620	505	
10	0	0	0	0	502	615	654	
11	0	0	0	0	504	612	709	
12	0	0	0	0	504	607	509	
13	0	0	0	0	504	603	458	
14	0	0	0	0	505	599	419	
15	0	0	0	0	507	593	442	
0	0	0	0	0	507	588	432	
1	0	0	0	0	506	583	458	
2	0	0	0	0	505	578	448	
3	0	0	0	0	505	574	468	
4	0	0	0	0	504	569	468	
5	0	0	0	0	502	564	489	
6	0	0	0	0	502	559	480	
7	0	0	0	0	502	553	504	
8	0	0	0	0	502	547	491	
9	0	0	0	0	504	541	510	
10	0	0	0	0	503	535	501	
11	0	0	0	0	503	528	513	
12	0	0	0	0	504	522	511	
13	0	0	0	0	505	516	531	
14	0	0	0	0	504	510	509	
15	0	0	0	0	503	504	538	
0	0	0	0	0	503	499	525	
1	0	0	0	0	503	494	548	
2	0	0	0	0	502	490	528	
3	0	0	0	0	502	486	547	
4	0	0	0	0	503	482	530	
5	0	0	0	0	503	479	557	
6	0	0	0	0	503	476	536	
7	0	0	0	0	502	473	547	
8	0	0	0	0	502	471	528	
9	0	0	0	0	501	470	543	
10	0	0	0	0	500	470	523	
11	0	0	0	0	500	471	527	
12	0	0	0	0	502	471	509	
13	0	0	0	0	506	472	496	
14	0	0	0	0	509	475	476	
15	0	0	0	0	511	477	490	
0	0	0	0	0	515	479	467	
1	0	0	0	0	519	481	483	
2	0	0	0	0	521	482	466	
3	0	0	0	0	523	481	498	
4	0	0	0	0	523	480	473	
5	0	0	0	0	523	477	496	
6	0	0	0	0	523	473	484	
7	0	0	0	0	522	469	511	
8	0	0	0	0	524	464	499	
9	0	0	0	0	523	459	524	
10	0	0	0	0	523	453	509	
11	0	0	0	0	521	447	525	
12	0	0	0	0	522	442	514	
13	0	0	0	0	519	438	528	
14	0	0	0	0	519	435	514	
15	0	0	0	0	519	432	523	
0	0	0	0	0	521	428	513	
1	0	0	0	0	520	424	532	
2	0	0	0	0	521	419	514	
3	0	0	0	0	519	416	532	
4	0	0	0	0	518	413	518	
5	0	0	0	0	517	410	524	
6	0	0	0	0	518	408	503	
7	0	0	0	0	519	407	521	
8	0	0	0	0	519	407	512	
9	0	0	0	0	519	407	521	
10	0	0	0	0	518	407	496	
11	0	0	0	0	519	407	523	
12	0	0	0	0	518	407	505	
13	0	0	0	0	517	407	520	
14	0	0	0	0	517	407	510	
15	0	0	0	0	517	408	513	
0	0	0	0	0	518	408	510	
1	0	0	0	0	518	410	529	
2	0	0	0	0	517	412	504	
3	0	0	0	0	516	413	515	
4	0	0	0	0	516	415	508	
5	0	0	0	0	515	417	515	
6	0	0	0	0	514	420	497	
7	0	0	0	0	514	422	511	
8	0	0	0	0	513	423	510	
9	0	0	0	0	512	425	522	
10	0	0	0	0	513	424	508	
11	0	0	0	0	515	424	517	
12	0	0	0	0	517	422	500	
13	0	0	0	0	516	419	512	
14	0	0	0	0	515	416	509	
15	0	0	0	0	515	413	521	
0	0	0	0	0	514	409	500	
1	0	0	0	0	512	407	519	
2	0	0	0	0	510	404	498	
3	0	0	0	0	510	403	506	
4	0	0	0	0	510	400	504	
5	0	0	0	0	508	398	515	
6	0	0	0	0	507	396	510	
7	0	0	0	0	508	393	505	
8	0	0	0	0	508	390	513	
9	0	0	0	0	506	386	516	
10	0	0	0	0	506	383	496	
11	0	0	0	0	506	377	512	
12	0	0	0	0	507	374	499	
13	0	0	0	0	507	369	514	
14	0	0	0	0	508	366	498	
15	0	0	0	0	508	361	511	
0	0	0	0	0	509	358	503	
1	0	0	0	0	509	355	521	
2	0	0	0	0	509	352	524	
3	0	0	0	0	509	350	528	
4	0	0	0	0	509	347	511	
5	0	0	0	0	509	344	559	
6	0	0	0	0	509	343	528	
7	0	0	0	0	508	341	529	
8	0	0	0	0	508	340	476	
9	0	0	0	0	508	340	483	
10	0	0	0	0	510	342	468	
11	0	0	0	0	510	344	497	
12	0	0	0	0	509	346	464	
13	0	0	0	0	509	350	474	
14	0	0	0	0	510	352	481	
15	0	0	0	0	510	356	502	
0	0	0	0	0	510	359	620	
1	0	0	0	0	511	363	709	
2	0	0	0	0	512	366	608	
3	0	0	0	0	512	371	488	
4	0	0	0	0	512	377	454	
5	0	0	0	0	512	384	468	
6	0	0	0	0	513	390	457	
7	0	0	0	0	512	396	472	
8	0	0	0	0	510	403	477	
9	0	0	0	0	508	408	490	
10	0	0	0	0	507	415	478	
11	0	0	0	0	508	422	495	
12	0	0	0	0	507	429	504	
13	0	0	0	0	508	438	518	
14	0	0	0	0	509	445	511	
15	0	0	0	0	509	453	516	
0	0	0	0	0	510	461	521	
1	0	0	0	0	511	467	536	
2	0	0	0	0	512	474	536	
3	0	0	0	0	513	480	532	
4	0	0	0	0	513	485	541	
5	0	0	0	0	513	491	542	
6	0	0	0	0	512	495	547	
7	0	0	0	0	512	499	561	
8	0	0	0	0	511	503	547	
9	0	0	0	0	511	505	551	
10	0	0	0	0	510	506	540	
11	0	0	0	0	510	507	560	
12	0	0	0	0	509	506	540	
13	0	0	0	0	509	505	551	
14	0	0	0	0	510	503	542	
15	0	0	0	0	511	500	544	
0	0	0	0	0	511	496	528	
1	0	0	0	0	513	492	528	
2	0	0	0	0	516	486	506	
3	0	0	0	0	517	480	488	
4	0	0	0	0	518	474	474	
5	0	0	0	0	522	467	483	
6	0	0	0	0	524	461	472	
7	0	0	0	0	526	455	484	
8	0	0	0	0	525	449	472	
9	0	0	0	0	527	445	490	
10	0	0	0	0	529	440	486	
11	0	0	0	0	530	436	496	
12	0	0	0	0	529	432	492	
13	0	0	0	0	529	428	502	
14	0	0	0	0	527	424	502	
15	0	0	0	0	526	421	512	
0	0	0	0	0	526	417	509	
1	0	0	0	0	525	413	511	
2	0	0	0	0	527	408	513	
3	0	0	0	0	525	404	510	
4	0	0	0	0	524	400	510	
5	0	0	0	0	524	396	520	
6	0	0	0	0	524	393	510	
7	0	0	0	0	522	390	516	
8	0	0	0	0	522	387	506	
9	0	0	0	0	521	386	524	
10	0	0	0	0	522	384	505	
11	0	0	0	0	524	383	517	
12	0	0	0	0	524	381	503	
13	0	0	0	0	524	379	516	
14	0	0	0	0	526	375	509	
15	0	0	0	0	527	370	516	
0	0	0	0	0	529	365	510	
1	0	0	0	0	531	359	516	
2	0	0	0	0	531	353	507	
3	0	0	0	0	531	348	510	
4	0	0	0	0	531	342	498	
5	0	0	0	0	530	336	528	
6	0	0	0	0	528	332	512	
7	0	0	0	0	526	329	513	
8	0	0	0	0	526	326	513	
9	0	0	0	0	524	323	519	
10	0	0	0	0	524	322	515	
11	0	0	0	0	524	321	518	
12	0	0	0	0	523	320	511	
13	0	0	0	0	521	320	516	
14	0	0	0	0	521	321	511	
15	0	0	0	0	520	322	524	
0	0	0	0	0	518	325	517	
1	0	0	0	0	517	330	519	
2	0	0	0	0	515	336	514	
3	0	0	0	0	516	344	527	
4	0	0	0	0	519	353	518	
5	0	0	0	0	519	363	527	
6	0	0	0	0	520	374	522	
7	0	0	0	0	522	386	528	
8	0	0	0	0	524	398	521	
9	0	0	0	0	523	409	524	
10	0	0	0	0	523	421	519	
11	0	0	0	0	522	432	545	
12	0	0	0	0	520	443	520	
13	0	0	0	0	519	452	536	
14	0	0	0	0	519	463	517	
15	0	0	0	0	518	473	540	
0	0	0	0	0	517	484	560	
1	0	0	0	0	515	496	571	
2	0	0	0	0	513	506	581	
3	0	0	0	0	512	517	579	
4	0	0	0	0	510	528	558	
5	0	0	0	0	509	539	543	
6	0	0	0	0	510	549	497	
7	0	0	0	0	510	558	495	
8	0	0	0	0	511	568	496	
9	0	0	0	0	512	577	503	
10	0	0	0	0	515	584	496	
11	0	0	0	0	518	592	519	
12	0	0	0	0	519	599	490	
13	0	0	0	0	518	604	556	
14	0	0	0	0	516	610	711	
15	0	0	0	0	514	615	737	
0	0	0	0	0	512	621	551	
1	0	0	0	0	511	627	488	
2	0	0	0	0	509	632	438	
3	0	0	0	0	506	639	458	
4	0	0	0	0	505	645	460	
5	0	0	0	0	505	652	468	
6	0	0	0	0	506	660	460	
7	0	0	0	0	507	668	476	
8	0	0	0	0	508	676	481	
9	0	0	0	0	509	684	490	
10	0	0	0	0	510	693	489	
11	0	0	0	0	511	702	499	
12	0	0	0	0	511	709	508	
13	0	0	0	0	512	716	514	
14	0	0	0	0	512	723	514	
15	0	0	0	0	511	729	505	
0	0	0	0	0	510	735	521	
1	0	0	0	0	509	740	533	
2	0	0	0	0	509	745	516	
3	0	0	0	0	508	750	538	
4	0	0	0	0	508	756	532	
5	0	0	0	0	508	761	528	
6	0	0	0	0	508	768	531	
7	0	0	0	0	509	774	532	
8	0	0	0	0	510	780	527	
9	0	0	0	0	511	785	528	
10	0	0	0	0	510	789	534	
11	0	0	0	0	511	792	528	
12	0	0	0	0	512	796	522	
13	0	0	0	0	515	797	527	
14	0	0	0	0	516	799	522	
15	0	0	0	0	520	800	503	
0	0	0	0	0	525	800	474	
1	0	0	0	0	527	800	483	
2	0	0	0	0	527	799	465	
3	0	0	0	0	528	798	473	
4	0	0	0	0	530	796	456	
5	0	0	0	0	532	792	451	
6	0	0	0	0	534	789	474	
7	0	0	0	0	533	786	476	
8	0	0	0	0	532	783	479	
9	0	0	0	0	532	779	487	
10	0	0	0	0	533	777	485	
11	0	0	0	0	533	775	491	
12	0	0	0	0	533	772	494	
13	0	0	0	0	536	770	498	
14	0	0	0	0	537	768	496	
15	0	0	0	0	540	766	492	
0	0	0	0	0	540	764	514	
1	0	0	0	0	542	761	518	
2	0	0	0	0	543	758	505	
3	0	0	0	0	544	754	509	
4	0	0	0	0	543	750	513	
5	0	0	0	0	543	745	514	
6	0	0	0	0	543	740	508	
7	0	0	0	0	540	735	508	
8	0	0	0	0	539	729	505	
9	0	0	0	0	536	724	503	
10	0	0	0	0	535	719	500	
11	0	0	0	0	534	713	492	
12	0	0	0	0	534	708	487	
13	0	0	0	0	533	704	497	
14	0	0	0	0	532	699	491	
15	0	0	0	0	532	695	497	
0	0	0	0	0	531	690	497	
1	0	0	0	0	529	686	500	
2	0	0	0	0	527	681	492	
3	0	0	0	0	527	676	505	
4	0	0	0	0	526	671	494	
5	0	0	0	0	527	666	502	
6	0	0	0	0	528	661	497	
7	0	0	0	0	529	655	504	
8	0	0	0	0	530	649	493	
9	0	0	0	0	530	644	504	
10	0	0	0	0	530	638	518	
11	0	0	0	0	530	632	526	
12	0	0	0	0	530	626	530	
13	0	0	0	0	530	620	553	
14	0	0	0	0	529	614	543	
15	0	0	0	0	530	608	542	
0	0	0	0	0	531	601	512	
1	0	0	0	0	531	595	484	
2	0	0	0	0	531	589	470	
3	0	0	0	0	531	582	479	
4	0	0	0	0	530	576	464	
5	0	0	0	0	528	570	488	
6	0	0	0	0	527	563	481	
7	0	0	0	0	526	557	475	
8	0	0	0	0	524	551	487	
9	0	0	0	0	522	544	624	
10	0	0	0	0	523	538	726	
11	0	0	0	0	522	532	637	
12	0	0	0	0	522	527	484	
13	0	0	0	0	521	522	454	
14	0	0	0	0	522	518	444	
15	0	0	0	0	522	512	461	
0	0	0	0	0	522	508	469	
1	0	0	0	0	523	504	470	
2	0	0	0	0	522	501	474	
3	0	0	0	0	523	497	476	
4	0	0	0	0	521	495	485	
5	0	0	0	0	521	492	485	
6	0	0	0	0	519	489	495	
7	0	0	0	0	519	487	496	
8	0	0	0	0	519	485	500	
9	0	0	0	0	518	483	504	
10	0	0	0	0	518	482	513	
11	0	0	0	0	518	480	507	
12	0	0	0	0	517	480	511	
13	0	0	0	0	516	479	513	
14	0	0	0	0	515	478	510	
15	0	0	0	0	514	477	514	
0	0	0	0	0	513	477	521	
1	0	0	0	0	512	476	523	
2	0	0	0	0	513	476	527	
3	0	0	0	0	512	475	535	
4	0	0	0	0	512	474	529	
5	0	0	0	0	512	473	521	
6	0	0	0	0	514	472	520	
7	0	0	0	0	516	472	527	
8	0	0	0	0	518	472	529	
9	0	0	0	0	520	472	523	
10	0	0	0	0	523	472	513	
11	0	0	0	0	524	471	498	
12	0	0	0	0	527	470	475	
13	0	0	0	0	527	469	472	
14	0	0	0	0	529	468	468	
15	0	0	0	0	532	467	479	
0	0	0	0	0	534	465	474	
1	0	0	0	0	536	464	484	
2	0	0	0	0	538	462	492	
3	0	0	0	0	539	460	499	
4	0	0	0	0	539	458	498	
5	0	0	0	0	540	456	502	
6	0	0	0	0	540	454	505	
7	0	0	0	0	540	451	501	
8	0	0	0	0	540	449	510	
9	0	0	0	0	538	446	521	
10	0	0	0	0	537	444	520	
11	0	0	0	0	539	442	526	
12	0	0	0	0	539	439	526	
13	0	0	0	0	540	437	529	
14	0	0	0	0	543	434	528	
15	0	0	0	0	544	431	526	
0	0	0	0	0	543	428	530	
1	0	0	0	0	543	424	533	
2	0	0	0	0	541	420	525	
3	0	0	0	0	539	415	515	
4	0	0	0	0	538	410	514	
5	0	0	0	0	537	406	521	
6	0	0	0	0	536	401	512	
7	0	0	0	0	534	396	500	
8	0	0	0	0	531	392	511	
9	0	0	0	0	529	388	511	
10	0	0	0	0	527	385	508	
11	0	0	0	0	526	381	512	
12	0	0	0	0	525	377	505	
13	0	0	0	0	525	373	507	
14	0	0	0	0	524	369	515	
15	0	0	0	0	524	364	500	
0	0	0	0	0	524	359	502	
1	0	0	0	0	524	356	496	
2	0	0	0	0	524	353	503	
3	0	0	0	0	522	349	497	
4	0	0	0	0	521	346	510	
5	0	0	0	0	520	343	512	
6	0	0	0	0	521	340	508	
7	0	0	0	0	522	338	518	
8	0	0	0	0	521	337	515	
9	0	0	0	0	521	336	519	
10	0	0	0	0	520	336	521	
11	0	0	0	0	521	336	519	
12	0	0	0	0	521	337	513	
13	0	0	0	0	521	338	519	
14	0	0	0	0	522	340	524	
15	0	0	0	0	522	342	519	
0	0	0	0	0	521	344	516	
1	0	0	0	0	521	348	514	
2	0	0	0	0	520	350	508	
3	0	0	0	0	519	353	508	
4	0	0	0	0	518	356	518	
5	0	0	0	0	515	358	504	
6	0	0	0	0	513	360	527	
7	0	0	0	0	513	363	531	
8	0	0	0	0	512	364	533	
9	0	0	0	0	512	367	540	
10	0	0	0	0	511	369	552	
11	0	0	0	0	512	371	533	
12	0	0	0	0	512	374	521	
13	0	0	0	0	511	376	490	
14	0	0	0	0	508	378	470	
15	0	0	0	0	508	380	449	
0	0	0	0	0	507	382	462	
1	0	0	0	0	505	383	463	
2	0	0	0	0	504	385	471	
3	0	0	0	0	504	386	467	
4	0	0	0	0	504	389	464	
5	0	0	0	0	504	391	519	
6	0	0	0	0	504	394	698	
7	0	0	0	0	505	397	711	
8	0	0	0	0	505	400	508	
9	0	0	0	0	506	404	439	
10	0	0	0	0	507	407	442	
11	0	0	0	0	508	409	434	
12	0	0	0	0	508	412	456	
13	0	0	0	0	505	414	467	
14	0	0	0	0	504	416	470	
15	0	0	0	0	504	418	473	
0	0	0	0	0	506	420	472	
1	0	0	0	0	507	422	484	
2	0	0	0	0	508	424	482	
3	0	0	0	0	509	427	496	
4	0	0	0	0	506	429	493	
5	0	0	0	0	505	431	494	
6	0	0	0	0	504	432	505	
7	0	0	0	0	504	434	506	
8	0	0	0	0	506	435	505	
9	0	0	0	0	508	435	515	
10	0	0	0	0	509	435	508	
11	0	0	0	0	509	435	511	
12	0	0	0	0	508	434	523	
13	0	0	0	0	508	434	530	
14	0	0	0	0	508	433	515	
15	0	0	0	0	508	433	522	
0	0	0	0	0	507	433	522	
1	0	0	0	0	507	434	520	
2	0	0	0	0	507	434	534	
3	0	0	0	0	507	435	525	
4	0	0	0	0	507	436	528	
5	0	0	0	0	508	436	524	
6	0	0	0	0	510	436	526	
7	0	0	0	0	513	435	505	
8	0	0	0	0	517	433	496	
9	0	0	0	0	519	430	481	
10	0	0	0	0	521	427	485	
11	0	0	0	0	524	423	472	
12	0	0	0	0	525	419	481	
13	0	0	0	0	527	415	485	
14	0	0	0	0	529	411	487	
15	0	0	0	0	529	406	499	
0	0	0	0	0	530	403	499	
1	0	0	0	0	529	399	501	
2	0	0	0	0	529	396	502	
3	0	0	0	0	529	393	507	
4	0	0	0	0	529	391	510	
5	0	0	0	0	528	390	505	
6	0	0	0	0	527	388	522	
7	0	0	0	0	528	387	519	
8	0	0	0	0	528	386	521	
9	0	0	0	0	526	385	533	
10	0	0	0	0	526	384	530	
11	0	0	0	0	525	384	524	
12	0	0	0	0	523	383	538	
13	0	0	0	0	522	384	531	
14	0	0	0	0	522	384	534	
15	0	0	0	0	522	385	526	
0	0	0	0	0	522	385	535	
1	0	0	0	0	519	387	522	
2	0	0	0	0	519	388	534	
3	0	0	0	0	518	390	525	
