# OpenSignals Text File Format. Version 1
# {"84:BA:20:AE:BC:92": {"position": 0, "device": "bitalino_rev", "device name": "84:BA:20:AE:BC:92", "device connection": "BTH84:BA:20:AE:BC:92", "sampling rate": 100, "resolution": [4, 1, 1, 1, 1, 10, 10, 10], "firmware version": 1282, "comments": "", "keywords": "", "mode": 0, "sync interval": 2, "date": "2025-10-22", "time": "11:18:26.50", "channels": [2, 3, 4], "sensor": ["RAW", "RESPBIT", "ECGBIT"], "label": ["A2", "A3", "A4"], "column": ["nSeq", "I1", "I2", "O1", "O2", "A2", "A3", "A4"], "special": [{}, {}, {}], "digital IO": [0, 0, 1, 1], "convertedValues": 1}}
# EndOfHeader
0.0	0.0	0.0	0.0	0.0	487.0	1.36	-0.085	
1.0	0.0	0.0	0.0	0.0	488.0	1.37	-0.179	
2.0	0.0	0.0	0.0	0.0	488.0	1.379	0.111	
3.0	0.0	0.0	0.0	0.0	488.0	1.386	1.061	
4.0	0.0	0.0	0.0	0.0	489.0	1.399	1.494	
5.0	0.0	0.0	0.0	0.0	489.0	1.408	1.151	
6.0	0.0	0.0	0.0	0.0	488.0	1.415	0.082	
7.0	0.0	0.0	0.0	0.0	487.0	1.424	-0.387	
8.0	0.0	0.0	0.0	0.0	486.0	1.437	-0.516	
9.0	0.0	0.0	0.0	0.0	486.0	1.45	-0.551	
10.0	0.0	0.0	0.0	0.0	485.0	1.46	-0.524	
11.0	0.0	0.0	0.0	0.0	486.0	1.466	-0.46	
12.0	0.0	0.0	0.0	0.0	484.0	1.47	-0.387	
13.0	0.0	0.0	0.0	0.0	482.0	1.47	-0.337	
14.0	0.0	0.0	0.0	0.0	482.0	1.47	-0.287	
15.0	0.0	0.0	0.0	0.0	481.0	1.466	-0.302	
0.0	0.0	0.0	0.0	0.0	481.0	1.463	-0.167	
1.0	0.0	0.0	0.0	0.0	481.0	1.457	-0.164	
2.0	0.0	0.0	0.0	0.0	480.0	1.453	-0.179	
3.0	0.0	0.0	0.0	0.0	480.0	1.447	-0.129	
4.0	0.0	0.0	0.0	0.0	480.0	1.441	-0.091	
5.0	0.0	0.0	0.0	0.0	481.0	1.431	-0.067	
6.0	0.0	0.0	0.0	0.0	482.0	1.421	0.018	
7.0	0.0	0.0	0.0	0.0	481.0	1.412	0.056	
8.0	0.0	0.0	0.0	0.0	479.0	1.395	0.158	
9.0	0.0	0.0	0.0	0.0	479.0	1.383	0.135	
10.0	0.0	0.0	0.0	0.0	479.0	1.363	0.196	
11.0	0.0	0.0	0.0	0.0	480.0	1.35	0.214	
12.0	0.0	0.0	0.0	0.0	482.0	1.328	0.185	
13.0	0.0	0.0	0.0	0.0	483.0	1.312	0.176	
14.0	0.0	0.0	0.0	0.0	486.0	1.292	0.082	
15.0	0.0	0.0	0.0	0.0	487.0	1.273	-0.126	
0.0	0.0	0.0	0.0	0.0	490.0	1.25	-0.164	
1.0	0.0	0.0	0.0	0.0	491.0	1.231	-0.208	
2.0	0.0	0.0	0.0	0.0	492.0	1.212	-0.173	
3.0	0.0	0.0	0.0	0.0	492.0	1.192	-0.202	
4.0	0.0	0.0	0.0	0.0	493.0	1.17	-0.278	
5.0	0.0	0.0	0.0	0.0	494.0	1.15	-0.305	
6.0	0.0	0.0	0.0	0.0	496.0	1.125	-0.261	
7.0	0.0	0.0	0.0	0.0	496.0	1.102	-0.378	
8.0	0.0	0.0	0.0	0.0	496.0	1.08	-0.185	
9.0	0.0	0.0	0.0	0.0	496.0	1.054	-0.217	
10.0	0.0	0.0	0.0	0.0	496.0	1.031	-0.217	
11.0	0.0	0.0	0.0	0.0	495.0	1.012	-0.24	
12.0	0.0	0.0	0.0	0.0	496.0	0.993	-0.188	
13.0	0.0	0.0	0.0	0.0	496.0	0.976	-0.205	
14.0	0.0	0.0	0.0	0.0	496.0	0.96	-0.237	
15.0	0.0	0.0	0.0	0.0	495.0	0.944	-0.164	
0.0	0.0	0.0	0.0	0.0	495.0	0.925	-0.123	
1.0	0.0	0.0	0.0	0.0	494.0	0.909	-0.062	
2.0	0.0	0.0	0.0	0.0	492.0	0.889	-0.006	
3.0	0.0	0.0	0.0	0.0	491.0	0.87	-0.023	
4.0	0.0	0.0	0.0	0.0	491.0	0.848	0.059	
5.0	0.0	0.0	0.0	0.0	493.0	0.825	0.062	
6.0	0.0	0.0	0.0	0.0	494.0	0.799	0.05	
7.0	0.0	0.0	0.0	0.0	495.0	0.773	0.041	
8.0	0.0	0.0	0.0	0.0	496.0	0.744	0.114	
9.0	0.0	0.0	0.0	0.0	498.0	0.719	0.082	
10.0	0.0	0.0	0.0	0.0	499.0	0.696	0.041	
11.0	0.0	0.0	0.0	0.0	499.0	0.674	0.067	
12.0	0.0	0.0	0.0	0.0	497.0	0.651	0.067	
13.0	0.0	0.0	0.0	0.0	497.0	0.628	-0.003	
14.0	0.0	0.0	0.0	0.0	498.0	0.606	0.044	
15.0	0.0	0.0	0.0	0.0	496.0	0.587	0.035	
0.0	0.0	0.0	0.0	0.0	495.0	0.567	0.021	
1.0	0.0	0.0	0.0	0.0	494.0	0.545	0.026	
2.0	0.0	0.0	0.0	0.0	492.0	0.529	0.056	
3.0	0.0	0.0	0.0	0.0	491.0	0.512	0.076	
4.0	0.0	0.0	0.0	0.0	490.0	0.496	0.009	
5.0	0.0	0.0	0.0	0.0	489.0	0.483	-0.067	
6.0	0.0	0.0	0.0	0.0	489.0	0.467	-0.105	
7.0	0.0	0.0	0.0	0.0	488.0	0.454	-0.155	
8.0	0.0	0.0	0.0	0.0	489.0	0.442	-0.138	
9.0	0.0	0.0	0.0	0.0	487.0	0.432	-0.199	
10.0	0.0	0.0	0.0	0.0	487.0	0.422	-0.176	
11.0	0.0	0.0	0.0	0.0	485.0	0.413	-0.234	
12.0	0.0	0.0	0.0	0.0	484.0	0.403	0.211	
13.0	0.0	0.0	0.0	0.0	484.0	0.396	1.207	
14.0	0.0	0.0	0.0	0.0	486.0	0.39	1.494	
15.0	0.0	0.0	0.0	0.0	487.0	0.383	0.926	
0.0	0.0	0.0	0.0	0.0	488.0	0.374	-0.038	
1.0	0.0	0.0	0.0	0.0	489.0	0.364	-0.51	
2.0	0.0	0.0	0.0	0.0	489.0	0.361	-0.574	
3.0	0.0	0.0	0.0	0.0	489.0	0.364	-0.554	
4.0	0.0	0.0	0.0	0.0	491.0	0.367	-0.539	
5.0	0.0	0.0	0.0	0.0	490.0	0.371	-0.527	
6.0	0.0	0.0	0.0	0.0	491.0	0.371	-0.419	
7.0	0.0	0.0	0.0	0.0	489.0	0.371	-0.337	
8.0	0.0	0.0	0.0	0.0	490.0	0.367	-0.316	
9.0	0.0	0.0	0.0	0.0	489.0	0.364	-0.267	
10.0	0.0	0.0	0.0	0.0	488.0	0.361	-0.193	
11.0	0.0	0.0	0.0	0.0	486.0	0.354	-0.123	
12.0	0.0	0.0	0.0	0.0	483.0	0.348	-0.129	
13.0	0.0	0.0	0.0	0.0	484.0	0.342	-0.1	
14.0	0.0	0.0	0.0	0.0	485.0	0.335	-0.062	
15.0	0.0	0.0	0.0	0.0	485.0	0.332	-0.053	
0.0	0.0	0.0	0.0	0.0	485.0	0.322	-0.009	
1.0	0.0	0.0	0.0	0.0	485.0	0.319	0.064	
2.0	0.0	0.0	0.0	0.0	487.0	0.316	0.129	
3.0	0.0	0.0	0.0	0.0	487.0	0.313	0.205	
4.0	0.0	0.0	0.0	0.0	489.0	0.309	0.231	
5.0	0.0	0.0	0.0	0.0	491.0	0.313	0.179	
6.0	0.0	0.0	0.0	0.0	492.0	0.313	0.111	
7.0	0.0	0.0	0.0	0.0	492.0	0.319	0.094	
8.0	0.0	0.0	0.0	0.0	492.0	0.325	0.009	
9.0	0.0	0.0	0.0	0.0	493.0	0.332	-0.076	
10.0	0.0	0.0	0.0	0.0	495.0	0.348	-0.199	
11.0	0.0	0.0	0.0	0.0	496.0	0.371	-0.249	
12.0	0.0	0.0	0.0	0.0	499.0	0.396	-0.354	
13.0	0.0	0.0	0.0	0.0	501.0	0.422	-0.36	
14.0	0.0	0.0	0.0	0.0	501.0	0.451	-0.261	
15.0	0.0	0.0	0.0	0.0	500.0	0.483	-0.208	
0.0	0.0	0.0	0.0	0.0	500.0	0.512	-0.1	
1.0	0.0	0.0	0.0	0.0	500.0	0.538	-0.091	
2.0	0.0	0.0	0.0	0.0	500.0	0.567	-0.023	
3.0	0.0	0.0	0.0	0.0	500.0	0.596	-0.029	
4.0	0.0	0.0	0.0	0.0	502.0	0.622	0.076	
5.0	0.0	0.0	0.0	0.0	504.0	0.645	0.182	
6.0	0.0	0.0	0.0	0.0	504.0	0.667	0.246	
7.0	0.0	0.0	0.0	0.0	504.0	0.686	0.246	
8.0	0.0	0.0	0.0	0.0	504.0	0.699	0.226	
9.0	0.0	0.0	0.0	0.0	504.0	0.715	0.231	
10.0	0.0	0.0	0.0	0.0	504.0	0.728	0.185	
11.0	0.0	0.0	0.0	0.0	504.0	0.744	0.164	
12.0	0.0	0.0	0.0	0.0	504.0	0.757	0.22	
13.0	0.0	0.0	0.0	0.0	502.0	0.773	0.211	
14.0	0.0	0.0	0.0	0.0	502.0	0.793	0.234	
15.0	0.0	0.0	0.0	0.0	500.0	0.812	0.22	
0.0	0.0	0.0	0.0	0.0	501.0	0.831	0.252	
1.0	0.0	0.0	0.0	0.0	499.0	0.848	0.185	
2.0	0.0	0.0	0.0	0.0	501.0	0.864	0.164	
3.0	0.0	0.0	0.0	0.0	501.0	0.877	0.129	
4.0	0.0	0.0	0.0	0.0	502.0	0.886	0.135	
5.0	0.0	0.0	0.0	0.0	502.0	0.893	0.085	
6.0	0.0	0.0	0.0	0.0	502.0	0.902	0.12	
7.0	0.0	0.0	0.0	0.0	498.0	0.909	0.091	
8.0	0.0	0.0	0.0	0.0	496.0	0.918	-0.012	
9.0	0.0	0.0	0.0	0.0	497.0	0.928	0.021	
10.0	0.0	0.0	0.0	0.0	497.0	0.941	0.029	
11.0	0.0	0.0	0.0	0.0	496.0	0.954	-0.003	
12.0	0.0	0.0	0.0	0.0	495.0	0.967	-0.015	
13.0	0.0	0.0	0.0	0.0	495.0	0.98	0.012	
14.0	0.0	0.0	0.0	0.0	495.0	0.996	0.064	
15.0	0.0	0.0	0.0	0.0	495.0	1.005	0.105	
0.0	0.0	0.0	0.0	0.0	495.0	1.022	0.053	
1.0	0.0	0.0	0.0	0.0	495.0	1.031	-0.003	
2.0	0.0	0.0	0.0	0.0	495.0	1.044	-0.085	
3.0	0.0	0.0	0.0	0.0	494.0	1.057	-0.114	
4.0	0.0	0.0	0.0	0.0	493.0	1.07	-0.17	
5.0	0.0	0.0	0.0	0.0	492.0	1.08	-0.12	
6.0	0.0	0.0	0.0	0.0	492.0	1.096	-0.173	
7.0	0.0	0.0	0.0	0.0	491.0	1.109	-0.188	
8.0	0.0	0.0	0.0	0.0	491.0	1.118	0.211	
9.0	0.0	0.0	0.0	0.0	492.0	1.131	1.222	
10.0	0.0	0.0	0.0	0.0	488.0	1.138	1.494	
11.0	0.0	0.0	0.0	0.0	487.0	1.147	1.008	
12.0	0.0	0.0	0.0	0.0	486.0	1.15	0.035	
13.0	0.0	0.0	0.0	0.0	484.0	1.15	-0.442	
14.0	0.0	0.0	0.0	0.0	485.0	1.147	-0.521	
15.0	0.0	0.0	0.0	0.0	485.0	1.147	-0.524	
0.0	0.0	0.0	0.0	0.0	488.0	1.144	-0.551	
1.0	0.0	0.0	0.0	0.0	488.0	1.141	-0.457	
2.0	0.0	0.0	0.0	0.0	488.0	1.131	-0.396	
3.0	0.0	0.0	0.0	0.0	489.0	1.121	-0.357	
4.0	0.0	0.0	0.0	0.0	491.0	1.109	-0.305	
5.0	0.0	0.0	0.0	0.0	495.0	1.099	-0.261	
6.0	0.0	0.0	0.0	0.0	497.0	1.086	-0.188	
7.0	0.0	0.0	0.0	0.0	500.0	1.067	-0.149	
8.0	0.0	0.0	0.0	0.0	503.0	1.044	-0.082	
9.0	0.0	0.0	0.0	0.0	502.0	1.015	-0.006	
10.0	0.0	0.0	0.0	0.0	500.0	0.986	0.023	
11.0	0.0	0.0	0.0	0.0	498.0	0.96	0.056	
12.0	0.0	0.0	0.0	0.0	497.0	0.931	0.088	
13.0	0.0	0.0	0.0	0.0	494.0	0.902	0.164	
14.0	0.0	0.0	0.0	0.0	492.0	0.88	0.255	
15.0	0.0	0.0	0.0	0.0	492.0	0.86	0.34	
0.0	0.0	0.0	0.0	0.0	491.0	0.841	0.39	
1.0	0.0	0.0	0.0	0.0	491.0	0.822	0.357	
2.0	0.0	0.0	0.0	0.0	491.0	0.809	0.36	
3.0	0.0	0.0	0.0	0.0	492.0	0.793	0.302	
4.0	0.0	0.0	0.0	0.0	493.0	0.777	0.073	
5.0	0.0	0.0	0.0	0.0	495.0	0.761	-0.076	
6.0	0.0	0.0	0.0	0.0	497.0	0.744	-0.205	
7.0	0.0	0.0	0.0	0.0	500.0	0.735	-0.354	
8.0	0.0	0.0	0.0	0.0	503.0	0.722	-0.419	
9.0	0.0	0.0	0.0	0.0	506.0	0.709	-0.469	
10.0	0.0	0.0	0.0	0.0	510.0	0.696	-0.495	
11.0	0.0	0.0	0.0	0.0	511.0	0.683	-0.486	
12.0	0.0	0.0	0.0	0.0	512.0	0.667	-0.396	
13.0	0.0	0.0	0.0	0.0	513.0	0.654	-0.313	
14.0	0.0	0.0	0.0	0.0	513.0	0.638	-0.27	
15.0	0.0	0.0	0.0	0.0	512.0	0.625	-0.226	
0.0	0.0	0.0	0.0	0.0	511.0	0.612	-0.182	
1.0	0.0	0.0	0.0	0.0	510.0	0.596	-0.164	
2.0	0.0	0.0	0.0	0.0	510.0	0.58	-0.144	
3.0	0.0	0.0	0.0	0.0	510.0	0.567	-0.193	
4.0	0.0	0.0	0.0	0.0	509.0	0.551	-0.062	
5.0	0.0	0.0	0.0	0.0	509.0	0.535	-0.05	
6.0	0.0	0.0	0.0	0.0	510.0	0.516	0.009	
7.0	0.0	0.0	0.0	0.0	510.0	0.496	0.026	
8.0	0.0	0.0	0.0	0.0	510.0	0.477	0.026	
9.0	0.0	0.0	0.0	0.0	509.0	0.454	0.018	
10.0	0.0	0.0	0.0	0.0	505.0	0.429	0.041	
11.0	0.0	0.0	0.0	0.0	501.0	0.406	0.023	
12.0	0.0	0.0	0.0	0.0	499.0	0.383	0.009	
13.0	0.0	0.0	0.0	0.0	495.0	0.361	0.012	
14.0	0.0	0.0	0.0	0.0	490.0	0.332	0.018	
15.0	0.0	0.0	0.0	0.0	486.0	0.309	0.009	
0.0	0.0	0.0	0.0	0.0	483.0	0.284	0.015	
1.0	0.0	0.0	0.0	0.0	483.0	0.258	0.038	
2.0	0.0	0.0	0.0	0.0	484.0	0.232	0.067	
3.0	0.0	0.0	0.0	0.0	484.0	0.203	0.064	
4.0	0.0	0.0	0.0	0.0	486.0	0.174	0.079	
5.0	0.0	0.0	0.0	0.0	487.0	0.139	0.105	
6.0	0.0	0.0	0.0	0.0	489.0	0.097	0.173	
7.0	0.0	0.0	0.0	0.0	492.0	0.048	0.231	
8.0	0.0	0.0	0.0	0.0	496.0	-0.003	0.252	
9.0	0.0	0.0	0.0	0.0	498.0	-0.061	0.369	
10.0	0.0	0.0	0.0	0.0	502.0	-0.116	0.416	
11.0	0.0	0.0	0.0	0.0	504.0	-0.164	0.606	
12.0	0.0	0.0	0.0	0.0	507.0	-0.206	0.738	
13.0	0.0	0.0	0.0	0.0	510.0	-0.238	0.609	
14.0	0.0	0.0	0.0	0.0	512.0	-0.261	0.357	
15.0	0.0	0.0	0.0	0.0	513.0	-0.277	0.176	
0.0	0.0	0.0	0.0	0.0	514.0	-0.287	0.041	
1.0	0.0	0.0	0.0	0.0	515.0	-0.29	0.059	
2.0	0.0	0.0	0.0	0.0	515.0	-0.293	0.035	
3.0	0.0	0.0	0.0	0.0	512.0	-0.293	-0.067	
4.0	0.0	0.0	0.0	0.0	510.0	-0.29	-0.243	
5.0	0.0	0.0	0.0	0.0	508.0	-0.284	-0.27	
6.0	0.0	0.0	0.0	0.0	507.0	-0.274	0.308	
7.0	0.0	0.0	0.0	0.0	504.0	-0.261	1.11	
8.0	0.0	0.0	0.0	0.0	503.0	-0.248	1.102	
9.0	0.0	0.0	0.0	0.0	500.0	-0.232	0.067	
10.0	0.0	0.0	0.0	0.0	500.0	-0.219	-0.604	
11.0	0.0	0.0	0.0	0.0	499.0	-0.213	-0.888	
12.0	0.0	0.0	0.0	0.0	497.0	-0.203	-0.853	
13.0	0.0	0.0	0.0	0.0	494.0	-0.193	-0.867	
14.0	0.0	0.0	0.0	0.0	494.0	-0.18	-0.844	
15.0	0.0	0.0	0.0	0.0	495.0	-0.164	-0.788	
0.0	0.0	0.0	0.0	0.0	495.0	-0.145	-0.615	
1.0	0.0	0.0	0.0	0.0	495.0	-0.126	-0.504	
2.0	0.0	0.0	0.0	0.0	495.0	-0.1	-0.372	
3.0	0.0	0.0	0.0	0.0	495.0	-0.071	-0.419	
4.0	0.0	0.0	0.0	0.0	495.0	-0.045	-0.396	
5.0	0.0	0.0	0.0	0.0	496.0	-0.023	-0.393	
6.0	0.0	0.0	0.0	0.0	497.0	-0.003	-0.354	
7.0	0.0	0.0	0.0	0.0	498.0	0.01	-0.234	
8.0	0.0	0.0	0.0	0.0	497.0	0.026	-0.138	
9.0	0.0	0.0	0.0	0.0	495.0	0.039	-0.038	
10.0	0.0	0.0	0.0	0.0	495.0	0.052	0.035	
11.0	0.0	0.0	0.0	0.0	496.0	0.064	0.138	
12.0	0.0	0.0	0.0	0.0	496.0	0.077	0.275	
13.0	0.0	0.0	0.0	0.0	496.0	0.09	0.322	
14.0	0.0	0.0	0.0	0.0	495.0	0.1	0.369	
15.0	0.0	0.0	0.0	0.0	494.0	0.106	0.372	
0.0	0.0	0.0	0.0	0.0	494.0	0.116	0.486	
1.0	0.0	0.0	0.0	0.0	494.0	0.122	0.448	
2.0	0.0	0.0	0.0	0.0	495.0	0.129	0.319	
3.0	0.0	0.0	0.0	0.0	497.0	0.139	0.19	
4.0	0.0	0.0	0.0	0.0	498.0	0.145	0.012	
5.0	0.0	0.0	0.0	0.0	500.0	0.151	-0.067	
6.0	0.0	0.0	0.0	0.0	503.0	0.158	-0.111	
7.0	0.0	0.0	0.0	0.0	503.0	0.168	-0.117	
8.0	0.0	0.0	0.0	0.0	505.0	0.174	-0.12	
9.0	0.0	0.0	0.0	0.0	508.0	0.18	-0.05	
10.0	0.0	0.0	0.0	0.0	509.0	0.19	-0.12	
11.0	0.0	0.0	0.0	0.0	510.0	0.197	-0.053	
12.0	0.0	0.0	0.0	0.0	511.0	0.206	-0.085	
13.0	0.0	0.0	0.0	0.0	515.0	0.219	-0.082	
14.0	0.0	0.0	0.0	0.0	514.0	0.235	-0.126	
15.0	0.0	0.0	0.0	0.0	511.0	0.251	-0.067	
0.0	0.0	0.0	0.0	0.0	510.0	0.267	-0.161	
1.0	0.0	0.0	0.0	0.0	509.0	0.287	-0.199	
2.0	0.0	0.0	0.0	0.0	508.0	0.306	-0.202	
3.0	0.0	0.0	0.0	0.0	505.0	0.322	-0.223	
4.0	0.0	0.0	0.0	0.0	504.0	0.345	-0.223	
5.0	0.0	0.0	0.0	0.0	503.0	0.364	-0.258	
6.0	0.0	0.0	0.0	0.0	502.0	0.383	-0.24	
7.0	0.0	0.0	0.0	0.0	503.0	0.4	-0.19	
8.0	0.0	0.0	0.0	0.0	504.0	0.413	-0.082	
9.0	0.0	0.0	0.0	0.0	504.0	0.425	-0.059	
10.0	0.0	0.0	0.0	0.0	504.0	0.442	-0.038	
11.0	0.0	0.0	0.0	0.0	505.0	0.451	-0.073	
12.0	0.0	0.0	0.0	0.0	505.0	0.467	-0.05	
13.0	0.0	0.0	0.0	0.0	505.0	0.477	-0.018	
14.0	0.0	0.0	0.0	0.0	506.0	0.49	0.047	
15.0	0.0	0.0	0.0	0.0	505.0	0.503	0.003	
0.0	0.0	0.0	0.0	0.0	505.0	0.519	0.103	
1.0	0.0	0.0	0.0	0.0	504.0	0.532	0.1	
2.0	0.0	0.0	0.0	0.0	506.0	0.541	0.114	
3.0	0.0	0.0	0.0	0.0	507.0	0.554	0.176	
4.0	0.0	0.0	0.0	0.0	506.0	0.564	0.226	
5.0	0.0	0.0	0.0	0.0	506.0	0.57	0.252	
6.0	0.0	0.0	0.0	0.0	504.0	0.577	0.275	
7.0	0.0	0.0	0.0	0.0	501.0	0.58	0.313	
8.0	0.0	0.0	0.0	0.0	500.0	0.583	0.387	
9.0	0.0	0.0	0.0	0.0	498.0	0.587	0.334	
10.0	0.0	0.0	0.0	0.0	497.0	0.587	0.278	
11.0	0.0	0.0	0.0	0.0	497.0	0.587	0.126	
12.0	0.0	0.0	0.0	0.0	497.0	0.587	0.073	
13.0	0.0	0.0	0.0	0.0	497.0	0.583	0.056	
14.0	0.0	0.0	0.0	0.0	496.0	0.58	0.009	
15.0	0.0	0.0	0.0	0.0	495.0	0.577	-0.021	
0.0	0.0	0.0	0.0	0.0	495.0	0.57	-0.132	
1.0	0.0	0.0	0.0	0.0	496.0	0.561	0.105	
2.0	0.0	0.0	0.0	0.0	495.0	0.554	0.911	
3.0	0.0	0.0	0.0	0.0	494.0	0.541	1.494	
4.0	0.0	0.0	0.0	0.0	496.0	0.535	1.184	
5.0	0.0	0.0	0.0	0.0	498.0	0.522	0.243	
6.0	0.0	0.0	0.0	0.0	499.0	0.503	-0.328	
7.0	0.0	0.0	0.0	0.0	499.0	0.487	-0.504	
8.0	0.0	0.0	0.0	0.0	497.0	0.474	-0.46	
9.0	0.0	0.0	0.0	0.0	496.0	0.461	-0.442	
10.0	0.0	0.0	0.0	0.0	496.0	0.445	-0.454	
11.0	0.0	0.0	0.0	0.0	496.0	0.429	-0.419	
12.0	0.0	0.0	0.0	0.0	497.0	0.413	-0.343	
13.0	0.0	0.0	0.0	0.0	499.0	0.393	-0.313	
14.0	0.0	0.0	0.0	0.0	499.0	0.374	-0.281	
15.0	0.0	0.0	0.0	0.0	498.0	0.354	-0.208	
0.0	0.0	0.0	0.0	0.0	498.0	0.335	-0.211	
1.0	0.0	0.0	0.0	0.0	498.0	0.316	-0.132	
2.0	0.0	0.0	0.0	0.0	497.0	0.3	-0.12	
3.0	0.0	0.0	0.0	0.0	494.0	0.28	-0.059	
4.0	0.0	0.0	0.0	0.0	493.0	0.261	0.018	
5.0	0.0	0.0	0.0	0.0	494.0	0.245	0.056	
6.0	0.0	0.0	0.0	0.0	494.0	0.226	0.094	
7.0	0.0	0.0	0.0	0.0	493.0	0.206	0.091	
8.0	0.0	0.0	0.0	0.0	494.0	0.19	0.152	
9.0	0.0	0.0	0.0	0.0	492.0	0.171	0.193	
10.0	0.0	0.0	0.0	0.0	492.0	0.155	0.193	
11.0	0.0	0.0	0.0	0.0	491.0	0.139	0.182	
12.0	0.0	0.0	0.0	0.0	492.0	0.126	0.167	
13.0	0.0	0.0	0.0	0.0	493.0	0.11	0.091	
14.0	0.0	0.0	0.0	0.0	493.0	0.097	-0.021	
15.0	0.0	0.0	0.0	0.0	493.0	0.084	-0.091	
0.0	0.0	0.0	0.0	0.0	494.0	0.071	-0.223	
1.0	0.0	0.0	0.0	0.0	493.0	0.055	-0.237	
2.0	0.0	0.0	0.0	0.0	496.0	0.042	-0.272	
3.0	0.0	0.0	0.0	0.0	497.0	0.026	-0.261	
4.0	0.0	0.0	0.0	0.0	500.0	0.013	-0.255	
5.0	0.0	0.0	0.0	0.0	504.0	-0.003	-0.202	
6.0	0.0	0.0	0.0	0.0	507.0	-0.013	-0.229	
7.0	0.0	0.0	0.0	0.0	509.0	-0.026	-0.167	
8.0	0.0	0.0	0.0	0.0	510.0	-0.035	-0.173	
9.0	0.0	0.0	0.0	0.0	512.0	-0.042	-0.196	
10.0	0.0	0.0	0.0	0.0	512.0	-0.052	-0.129	
11.0	0.0	0.0	0.0	0.0	511.0	-0.055	-0.123	
12.0	0.0	0.0	0.0	0.0	511.0	-0.058	-0.094	
13.0	0.0	0.0	0.0	0.0	511.0	-0.061	-0.094	
14.0	0.0	0.0	0.0	0.0	510.0	-0.064	-0.105	
15.0	0.0	0.0	0.0	0.0	510.0	-0.064	-0.088	
0.0	0.0	0.0	0.0	0.0	510.0	-0.064	-0.029	
1.0	0.0	0.0	0.0	0.0	509.0	-0.068	-0.026	
2.0	0.0	0.0	0.0	0.0	508.0	-0.071	-0.009	
3.0	0.0	0.0	0.0	0.0	507.0	-0.074	-0.038	
4.0	0.0	0.0	0.0	0.0	506.0	-0.081	-0.059	
5.0	0.0	0.0	0.0	0.0	506.0	-0.087	-0.026	
6.0	0.0	0.0	0.0	0.0	505.0	-0.093	-0.021	
7.0	0.0	0.0	0.0	0.0	505.0	-0.1	-0.012	
8.0	0.0	0.0	0.0	0.0	505.0	-0.106	-0.012	
9.0	0.0	0.0	0.0	0.0	506.0	-0.113	-0.026	
10.0	0.0	0.0	0.0	0.0	505.0	-0.116	0.032	
11.0	0.0	0.0	0.0	0.0	504.0	-0.119	0.044	
12.0	0.0	0.0	0.0	0.0	504.0	-0.126	0.021	
13.0	0.0	0.0	0.0	0.0	504.0	-0.129	0.023	
14.0	0.0	0.0	0.0	0.0	503.0	-0.132	0.041	
15.0	0.0	0.0	0.0	0.0	504.0	-0.139	-0.015	
0.0	0.0	0.0	0.0	0.0	506.0	-0.142	0.041	
1.0	0.0	0.0	0.0	0.0	508.0	-0.148	0.026	
2.0	0.0	0.0	0.0	0.0	510.0	-0.151	0.026	
3.0	0.0	0.0	0.0	0.0	511.0	-0.158	0.029	
4.0	0.0	0.0	0.0	0.0	511.0	-0.161	0.026	
5.0	0.0	0.0	0.0	0.0	510.0	-0.164	0.041	
6.0	0.0	0.0	0.0	0.0	509.0	-0.168	0.094	
7.0	0.0	0.0	0.0	0.0	508.0	-0.171	0.144	
8.0	0.0	0.0	0.0	0.0	507.0	-0.177	0.155	
9.0	0.0	0.0	0.0	0.0	507.0	-0.184	0.103	
10.0	0.0	0.0	0.0	0.0	505.0	-0.19	0.026	
11.0	0.0	0.0	0.0	0.0	503.0	-0.197	-0.041	
12.0	0.0	0.0	0.0	0.0	500.0	-0.203	-0.082	
13.0	0.0	0.0	0.0	0.0	498.0	-0.209	-0.056	
14.0	0.0	0.0	0.0	0.0	499.0	-0.216	-0.079	
15.0	0.0	0.0	0.0	0.0	496.0	-0.222	-0.193	
0.0	0.0	0.0	0.0	0.0	495.0	-0.229	0.076	
1.0	0.0	0.0	0.0	0.0	493.0	-0.232	0.905	
2.0	0.0	0.0	0.0	0.0	492.0	-0.238	1.494	
3.0	0.0	0.0	0.0	0.0	490.0	-0.238	1.354	
4.0	0.0	0.0	0.0	0.0	491.0	-0.245	0.311	
5.0	0.0	0.0	0.0	0.0	492.0	-0.248	-0.319	
6.0	0.0	0.0	0.0	0.0	494.0	-0.248	-0.454	
7.0	0.0	0.0	0.0	0.0	494.0	-0.248	-0.46	
8.0	0.0	0.0	0.0	0.0	495.0	-0.245	-0.422	
9.0	0.0	0.0	0.0	0.0	495.0	-0.235	-0.437	
10.0	0.0	0.0	0.0	0.0	495.0	-0.232	-0.372	
11.0	0.0	0.0	0.0	0.0	496.0	-0.226	-0.346	
12.0	0.0	0.0	0.0	0.0	496.0	-0.226	-0.322	
13.0	0.0	0.0	0.0	0.0	496.0	-0.222	-0.223	
14.0	0.0	0.0	0.0	0.0	495.0	-0.219	-0.141	
15.0	0.0	0.0	0.0	0.0	495.0	-0.222	-0.105	
0.0	0.0	0.0	0.0	0.0	494.0	-0.222	-0.062	
1.0	0.0	0.0	0.0	0.0	492.0	-0.229	0.0	
2.0	0.0	0.0	0.0	0.0	491.0	-0.235	0.041	
3.0	0.0	0.0	0.0	0.0	490.0	-0.242	0.006	
4.0	0.0	0.0	0.0	0.0	491.0	-0.248	0.103	
5.0	0.0	0.0	0.0	0.0	490.0	-0.255	0.149	
6.0	0.0	0.0	0.0	0.0	492.0	-0.261	0.275	
7.0	0.0	0.0	0.0	0.0	494.0	-0.267	0.401	
8.0	0.0	0.0	0.0	0.0	494.0	-0.274	0.393	
9.0	0.0	0.0	0.0	0.0	496.0	-0.28	0.349	
10.0	0.0	0.0	0.0	0.0	494.0	-0.287	0.252	
11.0	0.0	0.0	0.0	0.0	493.0	-0.287	0.076	
12.0	0.0	0.0	0.0	0.0	495.0	-0.284	0.105	
13.0	0.0	0.0	0.0	0.0	498.0	-0.277	-0.032	
14.0	0.0	0.0	0.0	0.0	500.0	-0.264	-0.199	
15.0	0.0	0.0	0.0	0.0	502.0	-0.248	-0.24	
0.0	0.0	0.0	0.0	0.0	503.0	-0.229	-0.384	
1.0	0.0	0.0	0.0	0.0	506.0	-0.203	-0.396	
2.0	0.0	0.0	0.0	0.0	509.0	-0.177	-0.457	
3.0	0.0	0.0	0.0	0.0	509.0	-0.151	-0.384	
4.0	0.0	0.0	0.0	0.0	510.0	-0.126	-0.308	
5.0	0.0	0.0	0.0	0.0	510.0	-0.106	-0.231	
6.0	0.0	0.0	0.0	0.0	511.0	-0.09	-0.264	
7.0	0.0	0.0	0.0	0.0	511.0	-0.077	-0.164	
8.0	0.0	0.0	0.0	0.0	511.0	-0.064	-0.226	
9.0	0.0	0.0	0.0	0.0	512.0	-0.052	-0.17	
10.0	0.0	0.0	0.0	0.0	511.0	-0.039	-0.161	
11.0	0.0	0.0	0.0	0.0	512.0	-0.026	-0.152	
12.0	0.0	0.0	0.0	0.0	512.0	-0.013	-0.22	
13.0	0.0	0.0	0.0	0.0	512.0	0.003	-0.237	
14.0	0.0	0.0	0.0	0.0	512.0	0.016	-0.24	
15.0	0.0	0.0	0.0	0.0	513.0	0.026	-0.188	
0.0	0.0	0.0	0.0	0.0	513.0	0.039	-0.047	
1.0	0.0	0.0	0.0	0.0	512.0	0.045	-0.041	
2.0	0.0	0.0	0.0	0.0	509.0	0.048	-0.015	
3.0	0.0	0.0	0.0	0.0	507.0	0.052	-0.117	
4.0	0.0	0.0	0.0	0.0	505.0	0.055	-0.097	
5.0	0.0	0.0	0.0	0.0	506.0	0.055	-0.108	
6.0	0.0	0.0	0.0	0.0	506.0	0.058	-0.158	
7.0	0.0	0.0	0.0	0.0	507.0	0.058	-0.056	
8.0	0.0	0.0	0.0	0.0	507.0	0.058	0.021	
9.0	0.0	0.0	0.0	0.0	507.0	0.058	0.023	
10.0	0.0	0.0	0.0	0.0	508.0	0.061	0.073	
11.0	0.0	0.0	0.0	0.0	507.0	0.061	0.05	
12.0	0.0	0.0	0.0	0.0	508.0	0.058	0.111	
13.0	0.0	0.0	0.0	0.0	507.0	0.052	0.173	
14.0	0.0	0.0	0.0	0.0	505.0	0.045	0.193	
15.0	0.0	0.0	0.0	0.0	504.0	0.035	0.079	
0.0	0.0	0.0	0.0	0.0	503.0	0.023	0.111	
1.0	0.0	0.0	0.0	0.0	503.0	0.01	0.105	
2.0	0.0	0.0	0.0	0.0	502.0	-0.006	0.041	
3.0	0.0	0.0	0.0	0.0	501.0	-0.019	-0.012	
4.0	0.0	0.0	0.0	0.0	501.0	-0.035	-0.038	
5.0	0.0	0.0	0.0	0.0	499.0	-0.052	0.059	
6.0	0.0	0.0	0.0	0.0	499.0	-0.061	0.026	
7.0	0.0	0.0	0.0	0.0	497.0	-0.064	-0.018	
8.0	0.0	0.0	0.0	0.0	495.0	-0.064	0.155	
9.0	0.0	0.0	0.0	0.0	492.0	-0.064	0.243	
10.0	0.0	0.0	0.0	0.0	494.0	-0.064	0.22	
11.0	0.0	0.0	0.0	0.0	496.0	-0.068	0.146	
12.0	0.0	0.0	0.0	0.0	497.0	-0.074	0.176	
13.0	0.0	0.0	0.0	0.0	499.0	-0.084	0.12	
14.0	0.0	0.0	0.0	0.0	502.0	-0.093	0.138	
15.0	0.0	0.0	0.0	0.0	502.0	-0.103	0.105	
0.0	0.0	0.0	0.0	0.0	503.0	-0.11	-0.029	
1.0	0.0	0.0	0.0	0.0	505.0	-0.116	0.056	
2.0	0.0	0.0	0.0	0.0	506.0	-0.116	0.753	
3.0	0.0	0.0	0.0	0.0	507.0	-0.113	1.374	
4.0	0.0	0.0	0.0	0.0	508.0	-0.103	0.984	
5.0	0.0	0.0	0.0	0.0	508.0	-0.093	0.161	
6.0	0.0	0.0	0.0	0.0	508.0	-0.09	-0.255	
7.0	0.0	0.0	0.0	0.0	506.0	-0.087	-0.331	
8.0	0.0	0.0	0.0	0.0	503.0	-0.084	-0.27	
9.0	0.0	0.0	0.0	0.0	502.0	-0.084	-0.237	
10.0	0.0	0.0	0.0	0.0	499.0	-0.084	-0.193	
11.0	0.0	0.0	0.0	0.0	497.0	-0.084	-0.223	
12.0	0.0	0.0	0.0	0.0	498.0	-0.077	-0.249	
13.0	0.0	0.0	0.0	0.0	498.0	-0.071	-0.275	
14.0	0.0	0.0	0.0	0.0	497.0	-0.064	-0.29	
15.0	0.0	0.0	0.0	0.0	497.0	-0.052	-0.255	
0.0	0.0	0.0	0.0	0.0	498.0	-0.045	-0.27	
1.0	0.0	0.0	0.0	0.0	498.0	-0.042	-0.272	
2.0	0.0	0.0	0.0	0.0	497.0	-0.042	-0.211	
3.0	0.0	0.0	0.0	0.0	496.0	-0.042	-0.085	
4.0	0.0	0.0	0.0	0.0	497.0	-0.045	0.009	
5.0	0.0	0.0	0.0	0.0	497.0	-0.048	0.158	
6.0	0.0	0.0	0.0	0.0	496.0	-0.052	0.255	
7.0	0.0	0.0	0.0	0.0	495.0	-0.061	0.308	
8.0	0.0	0.0	0.0	0.0	495.0	-0.064	0.296	
9.0	0.0	0.0	0.0	0.0	495.0	-0.074	0.308	
10.0	0.0	0.0	0.0	0.0	494.0	-0.074	0.272	
11.0	0.0	0.0	0.0	0.0	493.0	-0.074	0.243	
12.0	0.0	0.0	0.0	0.0	494.0	-0.064	0.226	
13.0	0.0	0.0	0.0	0.0	496.0	-0.052	0.073	
14.0	0.0	0.0	0.0	0.0	497.0	-0.039	-0.038	
15.0	0.0	0.0	0.0	0.0	498.0	-0.019	-0.176	
0.0	0.0	0.0	0.0	0.0	500.0	-0.003	-0.27	
1.0	0.0	0.0	0.0	0.0	502.0	0.01	-0.316	
2.0	0.0	0.0	0.0	0.0	504.0	0.019	-0.311	
3.0	0.0	0.0	0.0	0.0	505.0	0.026	-0.229	
4.0	0.0	0.0	0.0	0.0	507.0	0.026	-0.155	
5.0	0.0	0.0	0.0	0.0	510.0	0.023	-0.097	
6.0	0.0	0.0	0.0	0.0	511.0	0.016	-0.059	
7.0	0.0	0.0	0.0	0.0	510.0	0.006	-0.006	
8.0	0.0	0.0	0.0	0.0	511.0	-0.006	0.05	
9.0	0.0	0.0	0.0	0.0	511.0	-0.026	0.114	
10.0	0.0	0.0	0.0	0.0	511.0	-0.045	0.149	
11.0	0.0	0.0	0.0	0.0	509.0	-0.068	0.176	
12.0	0.0	0.0	0.0	0.0	509.0	-0.093	0.22	
13.0	0.0	0.0	0.0	0.0	510.0	-0.122	0.246	
14.0	0.0	0.0	0.0	0.0	513.0	-0.155	0.246	
15.0	0.0	0.0	0.0	0.0	512.0	-0.187	0.252	
0.0	0.0	0.0	0.0	0.0	511.0	-0.222	0.234	
1.0	0.0	0.0	0.0	0.0	510.0	-0.258	0.267	
2.0	0.0	0.0	0.0	0.0	508.0	-0.29	0.214	
3.0	0.0	0.0	0.0	0.0	508.0	-0.325	0.144	
4.0	0.0	0.0	0.0	0.0	508.0	-0.361	0.105	
5.0	0.0	0.0	0.0	0.0	506.0	-0.393	0.105	
6.0	0.0	0.0	0.0	0.0	504.0	-0.432	0.129	
7.0	0.0	0.0	0.0	0.0	504.0	-0.467	0.135	
8.0	0.0	0.0	0.0	0.0	503.0	-0.506	0.082	
9.0	0.0	0.0	0.0	0.0	504.0	-0.541	-0.029	
10.0	0.0	0.0	0.0	0.0	505.0	-0.57	-0.091	
11.0	0.0	0.0	0.0	0.0	506.0	-0.596	-0.117	
12.0	0.0	0.0	0.0	0.0	510.0	-0.619	-0.117	
13.0	0.0	0.0	0.0	0.0	511.0	-0.635	-0.138	
14.0	0.0	0.0	0.0	0.0	511.0	-0.651	-0.1	
15.0	0.0	0.0	0.0	0.0	510.0	-0.661	-0.062	
0.0	0.0	0.0	0.0	0.0	508.0	-0.674	-0.079	
1.0	0.0	0.0	0.0	0.0	506.0	-0.683	-0.056	
2.0	0.0	0.0	0.0	0.0	507.0	-0.693	-0.012	
3.0	0.0	0.0	0.0	0.0	505.0	-0.693	0.009	
4.0	0.0	0.0	0.0	0.0	504.0	-0.696	0.0	
5.0	0.0	0.0	0.0	0.0	502.0	-0.69	-0.029	
6.0	0.0	0.0	0.0	0.0	503.0	-0.68	-0.053	
7.0	0.0	0.0	0.0	0.0	502.0	-0.664	0.009	
8.0	0.0	0.0	0.0	0.0	501.0	-0.648	0.064	
9.0	0.0	0.0	0.0	0.0	502.0	-0.625	0.073	
10.0	0.0	0.0	0.0	0.0	504.0	-0.606	0.009	
11.0	0.0	0.0	0.0	0.0	504.0	-0.583	-0.021	
12.0	0.0	0.0	0.0	0.0	503.0	-0.558	-0.015	
13.0	0.0	0.0	0.0	0.0	503.0	-0.529	0.009	
14.0	0.0	0.0	0.0	0.0	503.0	-0.493	0.047	
15.0	0.0	0.0	0.0	0.0	502.0	-0.461	0.018	
0.0	0.0	0.0	0.0	0.0	500.0	-0.425	-0.079	
1.0	0.0	0.0	0.0	0.0	499.0	-0.39	0.062	
2.0	0.0	0.0	0.0	0.0	498.0	-0.354	0.753	
3.0	0.0	0.0	0.0	0.0	498.0	-0.322	1.453	
4.0	0.0	0.0	0.0	0.0	498.0	-0.293	1.225	
5.0	0.0	0.0	0.0	0.0	498.0	-0.271	0.311	
6.0	0.0	0.0	0.0	0.0	499.0	-0.248	-0.349	
7.0	0.0	0.0	0.0	0.0	500.0	-0.229	-0.633	
8.0	0.0	0.0	0.0	0.0	501.0	-0.213	-0.606	
9.0	0.0	0.0	0.0	0.0	502.0	-0.197	-0.554	
10.0	0.0	0.0	0.0	0.0	502.0	-0.184	-0.548	
11.0	0.0	0.0	0.0	0.0	502.0	-0.164	-0.504	
12.0	0.0	0.0	0.0	0.0	501.0	-0.145	-0.384	
13.0	0.0	0.0	0.0	0.0	500.0	-0.122	-0.354	
14.0	0.0	0.0	0.0	0.0	500.0	-0.103	-0.296	
15.0	0.0	0.0	0.0	0.0	499.0	-0.084	-0.19	
0.0	0.0	0.0	0.0	0.0	497.0	-0.064	-0.176	
1.0	0.0	0.0	0.0	0.0	496.0	-0.048	-0.179	
2.0	0.0	0.0	0.0	0.0	494.0	-0.032	-0.149	
3.0	0.0	0.0	0.0	0.0	494.0	-0.023	-0.146	
4.0	0.0	0.0	0.0	0.0	495.0	-0.019	-0.17	
5.0	0.0	0.0	0.0	0.0	495.0	-0.023	-0.082	
6.0	0.0	0.0	0.0	0.0	496.0	-0.032	-0.07	
7.0	0.0	0.0	0.0	0.0	496.0	-0.042	-0.021	
8.0	0.0	0.0	0.0	0.0	496.0	-0.052	0.035	
9.0	0.0	0.0	0.0	0.0	496.0	-0.064	0.07	
10.0	0.0	0.0	0.0	0.0	496.0	-0.071	0.041	
11.0	0.0	0.0	0.0	0.0	498.0	-0.074	0.073	
12.0	0.0	0.0	0.0	0.0	500.0	-0.081	0.056	
13.0	0.0	0.0	0.0	0.0	503.0	-0.081	-0.029	
14.0	0.0	0.0	0.0	0.0	503.0	-0.084	-0.126	
15.0	0.0	0.0	0.0	0.0	503.0	-0.09	-0.255	
0.0	0.0	0.0	0.0	0.0	504.0	-0.093	-0.319	
1.0	0.0	0.0	0.0	0.0	505.0	-0.103	-0.363	
2.0	0.0	0.0	0.0	0.0	507.0	-0.11	-0.416	
3.0	0.0	0.0	0.0	0.0	505.0	-0.119	-0.434	
4.0	0.0	0.0	0.0	0.0	505.0	-0.129	-0.381	
5.0	0.0	0.0	0.0	0.0	504.0	-0.142	-0.372	
6.0	0.0	0.0	0.0	0.0	504.0	-0.151	-0.311	
7.0	0.0	0.0	0.0	0.0	505.0	-0.158	-0.287	
8.0	0.0	0.0	0.0	0.0	505.0	-0.168	-0.255	
9.0	0.0	0.0	0.0	0.0	506.0	-0.177	-0.179	
10.0	0.0	0.0	0.0	0.0	509.0	-0.18	-0.091	
11.0	0.0	0.0	0.0	0.0	511.0	-0.184	-0.07	
12.0	0.0	0.0	0.0	0.0	512.0	-0.184	-0.023	
13.0	0.0	0.0	0.0	0.0	513.0	-0.18	-0.006	
14.0	0.0	0.0	0.0	0.0	515.0	-0.168	0.026	
15.0	0.0	0.0	0.0	0.0	516.0	-0.158	0.018	
0.0	0.0	0.0	0.0	0.0	519.0	-0.148	0.064	
1.0	0.0	0.0	0.0	0.0	519.0	-0.139	0.07	
2.0	0.0	0.0	0.0	0.0	523.0	-0.129	0.015	
3.0	0.0	0.0	0.0	0.0	523.0	-0.122	0.073	
4.0	0.0	0.0	0.0	0.0	521.0	-0.113	0.07	
5.0	0.0	0.0	0.0	0.0	520.0	-0.103	0.067	
6.0	0.0	0.0	0.0	0.0	518.0	-0.097	0.076	
7.0	0.0	0.0	0.0	0.0	516.0	-0.087	0.053	
8.0	0.0	0.0	0.0	0.0	514.0	-0.077	0.07	
9.0	0.0	0.0	0.0	0.0	512.0	-0.068	0.029	
10.0	0.0	0.0	0.0	0.0	512.0	-0.058	0.05	
11.0	0.0	0.0	0.0	0.0	510.0	-0.052	0.067	
12.0	0.0	0.0	0.0	0.0	508.0	-0.042	0.032	
13.0	0.0	0.0	0.0	0.0	510.0	-0.029	0.053	
14.0	0.0	0.0	0.0	0.0	511.0	-0.019	0.044	
15.0	0.0	0.0	0.0	0.0	511.0	-0.01	0.05	
0.0	0.0	0.0	0.0	0.0	511.0	0.0	0.032	
1.0	0.0	0.0	0.0	0.0	512.0	0.01	0.026	
2.0	0.0	0.0	0.0	0.0	512.0	0.019	-0.006	
3.0	0.0	0.0	0.0	0.0	511.0	0.026	0.006	
4.0	0.0	0.0	0.0	0.0	508.0	0.035	0.044	
5.0	0.0	0.0	0.0	0.0	506.0	0.042	0.073	
6.0	0.0	0.0	0.0	0.0	505.0	0.048	0.1	
7.0	0.0	0.0	0.0	0.0	505.0	0.058	0.114	
8.0	0.0	0.0	0.0	0.0	507.0	0.064	0.149	
9.0	0.0	0.0	0.0	0.0	509.0	0.077	0.146	
10.0	0.0	0.0	0.0	0.0	512.0	0.084	0.097	
11.0	0.0	0.0	0.0	0.0	514.0	0.09	0.012	
12.0	0.0	0.0	0.0	0.0	515.0	0.1	-0.047	
13.0	0.0	0.0	0.0	0.0	517.0	0.103	-0.073	
14.0	0.0	0.0	0.0	0.0	516.0	0.103	-0.038	
15.0	0.0	0.0	0.0	0.0	515.0	0.106	-0.085	
0.0	0.0	0.0	0.0	0.0	514.0	0.103	-0.196	
1.0	0.0	0.0	0.0	0.0	513.0	0.103	0.047	
2.0	0.0	0.0	0.0	0.0	512.0	0.1	0.759	
3.0	0.0	0.0	0.0	0.0	508.0	0.103	1.474	
4.0	0.0	0.0	0.0	0.0	507.0	0.103	1.286	
5.0	0.0	0.0	0.0	0.0	506.0	0.106	0.407	
6.0	0.0	0.0	0.0	0.0	504.0	0.103	-0.246	
7.0	0.0	0.0	0.0	0.0	502.0	0.1	-0.46	
8.0	0.0	0.0	0.0	0.0	502.0	0.1	-0.422	
9.0	0.0	0.0	0.0	0.0	499.0	0.097	-0.431	
10.0	0.0	0.0	0.0	0.0	498.0	0.093	-0.437	
11.0	0.0	0.0	0.0	0.0	497.0	0.093	-0.357	
12.0	0.0	0.0	0.0	0.0	497.0	0.1	-0.34	
13.0	0.0	0.0	0.0	0.0	499.0	0.106	-0.313	
14.0	0.0	0.0	0.0	0.0	499.0	0.11	-0.237	
15.0	0.0	0.0	0.0	0.0	499.0	0.113	-0.167	
0.0	0.0	0.0	0.0	0.0	499.0	0.113	-0.135	
1.0	0.0	0.0	0.0	0.0	500.0	0.116	-0.067	
2.0	0.0	0.0	0.0	0.0	500.0	0.113	-0.073	
3.0	0.0	0.0	0.0	0.0	499.0	0.106	0.021	
4.0	0.0	0.0	0.0	0.0	499.0	0.097	0.056	
5.0	0.0	0.0	0.0	0.0	498.0	0.081	0.085	
6.0	0.0	0.0	0.0	0.0	499.0	0.064	0.176	
7.0	0.0	0.0	0.0	0.0	499.0	0.048	0.158	
8.0	0.0	0.0	0.0	0.0	499.0	0.032	0.27	
9.0	0.0	0.0	0.0	0.0	500.0	0.019	0.272	
10.0	0.0	0.0	0.0	0.0	503.0	0.006	0.27	
11.0	0.0	0.0	0.0	0.0	503.0	-0.003	0.264	
12.0	0.0	0.0	0.0	0.0	503.0	-0.013	0.22	
13.0	0.0	0.0	0.0	0.0	504.0	-0.019	0.161	
14.0	0.0	0.0	0.0	0.0	504.0	-0.029	0.044	
15.0	0.0	0.0	0.0	0.0	504.0	-0.039	-0.111	
0.0	0.0	0.0	0.0	0.0	504.0	-0.048	-0.158	
1.0	0.0	0.0	0.0	0.0	504.0	-0.058	-0.237	
2.0	0.0	0.0	0.0	0.0	506.0	-0.068	-0.249	
3.0	0.0	0.0	0.0	0.0	507.0	-0.081	-0.264	
4.0	0.0	0.0	0.0	0.0	510.0	-0.09	-0.284	
5.0	0.0	0.0	0.0	0.0	513.0	-0.1	-0.217	
6.0	0.0	0.0	0.0	0.0	514.0	-0.11	-0.217	
7.0	0.0	0.0	0.0	0.0	515.0	-0.119	-0.17	
8.0	0.0	0.0	0.0	0.0	516.0	-0.129	-0.179	
9.0	0.0	0.0	0.0	0.0	517.0	-0.135	-0.105	
10.0	0.0	0.0	0.0	0.0	519.0	-0.142	-0.1	
11.0	0.0	0.0	0.0	0.0	520.0	-0.145	-0.059	
12.0	0.0	0.0	0.0	0.0	519.0	-0.142	-0.067	
13.0	0.0	0.0	0.0	0.0	521.0	-0.139	-0.05	
14.0	0.0	0.0	0.0	0.0	520.0	-0.132	-0.047	
15.0	0.0	0.0	0.0	0.0	521.0	-0.122	0.006	
0.0	0.0	0.0	0.0	0.0	522.0	-0.116	0.026	
1.0	0.0	0.0	0.0	0.0	523.0	-0.106	0.006	
2.0	0.0	0.0	0.0	0.0	524.0	-0.103	0.003	
3.0	0.0	0.0	0.0	0.0	525.0	-0.097	-0.018	
4.0	0.0	0.0	0.0	0.0	524.0	-0.087	0.035	
5.0	0.0	0.0	0.0	0.0	523.0	-0.081	0.029	
6.0	0.0	0.0	0.0	0.0	523.0	-0.071	0.003	
7.0	0.0	0.0	0.0	0.0	521.0	-0.058	-0.015	
8.0	0.0	0.0	0.0	0.0	520.0	-0.048	0.0	
9.0	0.0	0.0	0.0	0.0	519.0	-0.032	-0.012	
10.0	0.0	0.0	0.0	0.0	519.0	-0.019	0.006	
11.0	0.0	0.0	0.0	0.0	518.0	-0.003	0.003	
12.0	0.0	0.0	0.0	0.0	518.0	0.013	0.009	
13.0	0.0	0.0	0.0	0.0	516.0	0.029	-0.009	
14.0	0.0	0.0	0.0	0.0	516.0	0.045	0.05	
15.0	0.0	0.0	0.0	0.0	516.0	0.061	0.035	
0.0	0.0	0.0	0.0	0.0	514.0	0.077	0.032	
1.0	0.0	0.0	0.0	0.0	515.0	0.093	0.006	
2.0	0.0	0.0	0.0	0.0	516.0	0.11	0.023	
3.0	0.0	0.0	0.0	0.0	516.0	0.122	0.021	
4.0	0.0	0.0	0.0	0.0	515.0	0.135	0.009	
5.0	0.0	0.0	0.0	0.0	515.0	0.145	0.012	
6.0	0.0	0.0	0.0	0.0	515.0	0.155	0.021	
7.0	0.0	0.0	0.0	0.0	514.0	0.161	0.038	
8.0	0.0	0.0	0.0	0.0	514.0	0.168	0.041	
9.0	0.0	0.0	0.0	0.0	513.0	0.174	0.053	
10.0	0.0	0.0	0.0	0.0	512.0	0.18	0.114	
11.0	0.0	0.0	0.0	0.0	510.0	0.18	0.161	
12.0	0.0	0.0	0.0	0.0	510.0	0.187	0.117	
13.0	0.0	0.0	0.0	0.0	510.0	0.19	0.018	
14.0	0.0	0.0	0.0	0.0	509.0	0.197	-0.029	
15.0	0.0	0.0	0.0	0.0	507.0	0.203	-0.085	
0.0	0.0	0.0	0.0	0.0	507.0	0.206	-0.062	
1.0	0.0	0.0	0.0	0.0	506.0	0.213	-0.067	
2.0	0.0	0.0	0.0	0.0	506.0	0.216	-0.079	
3.0	0.0	0.0	0.0	0.0	505.0	0.216	-0.076	
4.0	0.0	0.0	0.0	0.0	504.0	0.219	0.416	
5.0	0.0	0.0	0.0	0.0	506.0	0.219	1.336	
6.0	0.0	0.0	0.0	0.0	507.0	0.226	1.494	
7.0	0.0	0.0	0.0	0.0	508.0	0.232	0.756	
8.0	0.0	0.0	0.0	0.0	510.0	0.235	-0.064	
9.0	0.0	0.0	0.0	0.0	510.0	0.238	-0.445	
10.0	0.0	0.0	0.0	0.0	510.0	0.245	-0.48	
11.0	0.0	0.0	0.0	0.0	509.0	0.255	-0.475	
12.0	0.0	0.0	0.0	0.0	509.0	0.261	-0.425	
13.0	0.0	0.0	0.0	0.0	510.0	0.267	-0.36	
14.0	0.0	0.0	0.0	0.0	509.0	0.28	-0.305	
15.0	0.0	0.0	0.0	0.0	506.0	0.29	-0.264	
0.0	0.0	0.0	0.0	0.0	505.0	0.296	-0.217	
1.0	0.0	0.0	0.0	0.0	504.0	0.303	-0.167	
2.0	0.0	0.0	0.0	0.0	503.0	0.309	-0.149	
3.0	0.0	0.0	0.0	0.0	503.0	0.313	-0.126	
4.0	0.0	0.0	0.0	0.0	502.0	0.319	-0.079	
5.0	0.0	0.0	0.0	0.0	500.0	0.322	-0.035	
6.0	0.0	0.0	0.0	0.0	498.0	0.322	-0.021	
7.0	0.0	0.0	0.0	0.0	494.0	0.319	0.041	
8.0	0.0	0.0	0.0	0.0	494.0	0.309	0.088	
9.0	0.0	0.0	0.0	0.0	493.0	0.3	0.12	
10.0	0.0	0.0	0.0	0.0	493.0	0.29	0.193	
11.0	0.0	0.0	0.0	0.0	493.0	0.277	0.211	
12.0	0.0	0.0	0.0	0.0	494.0	0.267	0.226	
13.0	0.0	0.0	0.0	0.0	494.0	0.258	0.22	
14.0	0.0	0.0	0.0	0.0	493.0	0.251	0.19	
15.0	0.0	0.0	0.0	0.0	492.0	0.245	0.123	
0.0	0.0	0.0	0.0	0.0	492.0	0.242	0.026	
1.0	0.0	0.0	0.0	0.0	496.0	0.242	-0.108	
2.0	0.0	0.0	0.0	0.0	498.0	0.238	-0.208	
3.0	0.0	0.0	0.0	0.0	501.0	0.238	-0.258	
4.0	0.0	0.0	0.0	0.0	505.0	0.238	-0.264	
5.0	0.0	0.0	0.0	0.0	511.0	0.235	-0.249	
6.0	0.0	0.0	0.0	0.0	514.0	0.229	-0.255	
7.0	0.0	0.0	0.0	0.0	516.0	0.222	-0.231	
8.0	0.0	0.0	0.0	0.0	518.0	0.213	-0.214	
9.0	0.0	0.0	0.0	0.0	519.0	0.2	-0.193	
10.0	0.0	0.0	0.0	0.0	521.0	0.19	-0.188	
11.0	0.0	0.0	0.0	0.0	523.0	0.18	-0.152	
12.0	0.0	0.0	0.0	0.0	524.0	0.168	-0.129	
13.0	0.0	0.0	0.0	0.0	526.0	0.158	-0.105	
14.0	0.0	0.0	0.0	0.0	528.0	0.148	-0.091	
15.0	0.0	0.0	0.0	0.0	529.0	0.139	-0.05	
0.0	0.0	0.0	0.0	0.0	531.0	0.132	-0.038	
1.0	0.0	0.0	0.0	0.0	531.0	0.126	-0.021	
2.0	0.0	0.0	0.0	0.0	530.0	0.126	0.006	
3.0	0.0	0.0	0.0	0.0	528.0	0.119	0.021	
4.0	0.0	0.0	0.0	0.0	527.0	0.116	0.029	
5.0	0.0	0.0	0.0	0.0	525.0	0.11	0.026	
6.0	0.0	0.0	0.0	0.0	524.0	0.1	0.023	
7.0	0.0	0.0	0.0	0.0	522.0	0.09	0.038	
8.0	0.0	0.0	0.0	0.0	519.0	0.074	0.059	
9.0	0.0	0.0	0.0	0.0	518.0	0.055	0.035	
10.0	0.0	0.0	0.0	0.0	519.0	0.032	0.047	
11.0	0.0	0.0	0.0	0.0	520.0	0.01	0.05	
12.0	0.0	0.0	0.0	0.0	521.0	-0.016	0.038	
13.0	0.0	0.0	0.0	0.0	523.0	-0.045	0.023	
14.0	0.0	0.0	0.0	0.0	523.0	-0.077	0.041	
15.0	0.0	0.0	0.0	0.0	524.0	-0.11	0.056	
0.0	0.0	0.0	0.0	0.0	524.0	-0.148	0.073	
1.0	0.0	0.0	0.0	0.0	526.0	-0.193	0.059	
2.0	0.0	0.0	0.0	0.0	525.0	-0.235	0.088	
3.0	0.0	0.0	0.0	0.0	523.0	-0.28	0.041	
4.0	0.0	0.0	0.0	0.0	521.0	-0.322	0.012	
5.0	0.0	0.0	0.0	0.0	521.0	-0.364	0.018	
6.0	0.0	0.0	0.0	0.0	519.0	-0.4	0.015	
7.0	0.0	0.0	0.0	0.0	518.0	-0.432	0.0	
8.0	0.0	0.0	0.0	0.0	517.0	-0.464	0.009	
9.0	0.0	0.0	0.0	0.0	516.0	-0.493	-0.012	
10.0	0.0	0.0	0.0	0.0	515.0	-0.522	-0.003	
11.0	0.0	0.0	0.0	0.0	513.0	-0.551	-0.009	
12.0	0.0	0.0	0.0	0.0	512.0	-0.58	-0.006	
13.0	0.0	0.0	0.0	0.0	512.0	-0.599	-0.018	
14.0	0.0	0.0	0.0	0.0	512.0	-0.622	-0.015	
15.0	0.0	0.0	0.0	0.0	512.0	-0.645	0.0	
0.0	0.0	0.0	0.0	0.0	512.0	-0.661	0.009	
1.0	0.0	0.0	0.0	0.0	512.0	-0.674	0.012	
2.0	0.0	0.0	0.0	0.0	511.0	-0.69	0.035	
3.0	0.0	0.0	0.0	0.0	509.0	-0.699	0.064	
4.0	0.0	0.0	0.0	0.0	508.0	-0.712	0.105	
5.0	0.0	0.0	0.0	0.0	508.0	-0.722	0.155	
6.0	0.0	0.0	0.0	0.0	509.0	-0.735	0.182	
7.0	0.0	0.0	0.0	0.0	509.0	-0.741	0.123	
8.0	0.0	0.0	0.0	0.0	509.0	-0.751	0.047	
9.0	0.0	0.0	0.0	0.0	509.0	-0.761	0.012	
10.0	0.0	0.0	0.0	0.0	508.0	-0.77	-0.021	
11.0	0.0	0.0	0.0	0.0	507.0	-0.78	-0.035	
12.0	0.0	0.0	0.0	0.0	507.0	-0.796	-0.015	
13.0	0.0	0.0	0.0	0.0	506.0	-0.806	-0.085	
14.0	0.0	0.0	0.0	0.0	506.0	-0.819	-0.038	
15.0	0.0	0.0	0.0	0.0	505.0	-0.838	0.428	
0.0	0.0	0.0	0.0	0.0	504.0	-0.857	1.491	
1.0	0.0	0.0	0.0	0.0	504.0	-0.873	1.494	
2.0	0.0	0.0	0.0	0.0	504.0	-0.889	0.794	
3.0	0.0	0.0	0.0	0.0	504.0	-0.902	-0.1	
4.0	0.0	0.0	0.0	0.0	503.0	-0.918	-0.472	
5.0	0.0	0.0	0.0	0.0	504.0	-0.928	-0.472	
6.0	0.0	0.0	0.0	0.0	504.0	-0.935	-0.469	
7.0	0.0	0.0	0.0	0.0	504.0	-0.938	-0.46	
8.0	0.0	0.0	0.0	0.0	503.0	-0.947	-0.404	
9.0	0.0	0.0	0.0	0.0	503.0	-0.957	-0.325	
10.0	0.0	0.0	0.0	0.0	504.0	-0.967	-0.281	
11.0	0.0	0.0	0.0	0.0	503.0	-0.976	-0.211	
12.0	0.0	0.0	0.0	0.0	504.0	-0.986	-0.158	
13.0	0.0	0.0	0.0	0.0	504.0	-0.996	-0.094	
14.0	0.0	0.0	0.0	0.0	504.0	-1.005	-0.082	
15.0	0.0	0.0	0.0	0.0	502.0	-1.018	-0.05	
0.0	0.0	0.0	0.0	0.0	500.0	-1.028	-0.015	
1.0	0.0	0.0	0.0	0.0	500.0	-1.038	0.018	
2.0	0.0	0.0	0.0	0.0	500.0	-1.051	0.056	
3.0	0.0	0.0	0.0	0.0	498.0	-1.07	0.088	
4.0	0.0	0.0	0.0	0.0	496.0	-1.086	0.155	
5.0	0.0	0.0	0.0	0.0	495.0	-1.105	0.188	
6.0	0.0	0.0	0.0	0.0	496.0	-1.125	0.22	
7.0	0.0	0.0	0.0	0.0	494.0	-1.144	0.24	
8.0	0.0	0.0	0.0	0.0	494.0	-1.163	0.243	
9.0	0.0	0.0	0.0	0.0	495.0	-1.179	0.226	
10.0	0.0	0.0	0.0	0.0	496.0	-1.196	0.196	
11.0	0.0	0.0	0.0	0.0	497.0	-1.208	0.067	
12.0	0.0	0.0	0.0	0.0	498.0	-1.218	-0.076	
13.0	0.0	0.0	0.0	0.0	500.0	-1.234	-0.193	
14.0	0.0	0.0	0.0	0.0	503.0	-1.247	-0.267	
15.0	0.0	0.0	0.0	0.0	503.0	-1.26	-0.322	
0.0	0.0	0.0	0.0	0.0	505.0	-1.276	-0.316	
1.0	0.0	0.0	0.0	0.0	508.0	-1.289	-0.299	
2.0	0.0	0.0	0.0	0.0	509.0	-1.302	-0.264	
3.0	0.0	0.0	0.0	0.0	510.0	-1.312	-0.246	
4.0	0.0	0.0	0.0	0.0	511.0	-1.318	-0.237	
5.0	0.0	0.0	0.0	0.0	511.0	-1.318	-0.208	
6.0	0.0	0.0	0.0	0.0	512.0	-1.325	-0.179	
7.0	0.0	0.0	0.0	0.0	515.0	-1.334	-0.152	
8.0	0.0	0.0	0.0	0.0	518.0	-1.337	-0.138	
9.0	0.0	0.0	0.0	0.0	519.0	-1.337	-0.123	
10.0	0.0	0.0	0.0	0.0	521.0	-1.334	-0.114	
11.0	0.0	0.0	0.0	0.0	524.0	-1.331	-0.117	
12.0	0.0	0.0	0.0	0.0	525.0	-1.331	-0.132	
13.0	0.0	0.0	0.0	0.0	526.0	-1.328	-0.076	
14.0	0.0	0.0	0.0	0.0	526.0	-1.328	-0.059	
15.0	0.0	0.0	0.0	0.0	526.0	-1.328	-0.091	
0.0	0.0	0.0	0.0	0.0	526.0	-1.331	-0.076	
1.0	0.0	0.0	0.0	0.0	525.0	-1.341	-0.076	
2.0	0.0	0.0	0.0	0.0	525.0	-1.354	-0.1	
3.0	0.0	0.0	0.0	0.0	525.0	-1.366	-0.07	
4.0	0.0	0.0	0.0	0.0	524.0	-1.376	-0.085	
5.0	0.0	0.0	0.0	0.0	523.0	-1.386	-0.108	
6.0	0.0	0.0	0.0	0.0	523.0	-1.395	-0.085	
7.0	0.0	0.0	0.0	0.0	522.0	-1.405	-0.094	
8.0	0.0	0.0	0.0	0.0	522.0	-1.415	-0.097	
9.0	0.0	0.0	0.0	0.0	520.0	-1.424	-0.088	
10.0	0.0	0.0	0.0	0.0	519.0	-1.431	-0.082	
11.0	0.0	0.0	0.0	0.0	518.0	-1.437	-0.056	
12.0	0.0	0.0	0.0	0.0	516.0	-1.447	-0.015	
13.0	0.0	0.0	0.0	0.0	516.0	-1.453	0.012	
14.0	0.0	0.0	0.0	0.0	517.0	-1.466	0.023	
15.0	0.0	0.0	0.0	0.0	513.0	-1.476	0.021	
0.0	0.0	0.0	0.0	0.0	511.0	-1.492	0.018	
1.0	0.0	0.0	0.0	0.0	511.0	-1.502	0.009	
2.0	0.0	0.0	0.0	0.0	512.0	-1.511	0.018	
3.0	0.0	0.0	0.0	0.0	511.0	-1.518	0.0	
4.0	0.0	0.0	0.0	0.0	511.0	-1.528	0.015	
5.0	0.0	0.0	0.0	0.0	511.0	-1.537	0.015	
6.0	0.0	0.0	0.0	0.0	512.0	-1.534	-0.029	
7.0	0.0	0.0	0.0	0.0	512.0	-1.537	0.015	
8.0	0.0	0.0	0.0	0.0	512.0	-1.537	0.032	
9.0	0.0	0.0	0.0	0.0	512.0	-1.54	0.023	
10.0	0.0	0.0	0.0	0.0	512.0	-1.54	0.044	
11.0	0.0	0.0	0.0	0.0	511.0	-1.537	0.05	
12.0	0.0	0.0	0.0	0.0	512.0	-1.531	0.056	
13.0	0.0	0.0	0.0	0.0	512.0	-1.524	0.044	
14.0	0.0	0.0	0.0	0.0	512.0	-1.524	0.059	
15.0	0.0	0.0	0.0	0.0	510.0	-1.521	0.126	
0.0	0.0	0.0	0.0	0.0	508.0	-1.524	0.111	
1.0	0.0	0.0	0.0	0.0	507.0	-1.524	0.129	
2.0	0.0	0.0	0.0	0.0	507.0	-1.524	0.152	
3.0	0.0	0.0	0.0	0.0	505.0	-1.524	0.126	
4.0	0.0	0.0	0.0	0.0	505.0	-1.528	0.082	
5.0	0.0	0.0	0.0	0.0	505.0	-1.537	0.0	
6.0	0.0	0.0	0.0	0.0	505.0	-1.547	-0.038	
7.0	0.0	0.0	0.0	0.0	505.0	-1.55	-0.088	
8.0	0.0	0.0	0.0	0.0	503.0	-1.553	-0.108	
9.0	0.0	0.0	0.0	0.0	503.0	-1.557	-0.129	
10.0	0.0	0.0	0.0	0.0	501.0	-1.557	-0.202	
11.0	0.0	0.0	0.0	0.0	501.0	-1.55	-0.006	
12.0	0.0	0.0	0.0	0.0	501.0	-1.55	0.753	
13.0	0.0	0.0	0.0	0.0	501.0	-1.553	1.494	
14.0	0.0	0.0	0.0	0.0	499.0	-1.557	1.494	
15.0	0.0	0.0	0.0	0.0	497.0	-1.563	0.439	
0.0	0.0	0.0	0.0	0.0	497.0	-1.569	-0.217	
1.0	0.0	0.0	0.0	0.0	498.0	-1.576	-0.434	
2.0	0.0	0.0	0.0	0.0	497.0	-1.576	-0.398	
3.0	0.0	0.0	0.0	0.0	496.0	-1.576	-0.428	
4.0	0.0	0.0	0.0	0.0	496.0	-1.579	-0.387	
5.0	0.0	0.0	0.0	0.0	498.0	-1.582	-0.331	
6.0	0.0	0.0	0.0	0.0	501.0	-1.586	-0.237	
7.0	0.0	0.0	0.0	0.0	502.0	-1.586	-0.217	
8.0	0.0	0.0	0.0	0.0	502.0	-1.589	-0.193	
9.0	0.0	0.0	0.0	0.0	501.0	-1.592	-0.176	
10.0	0.0	0.0	0.0	0.0	500.0	-1.592	-0.138	
11.0	0.0	0.0	0.0	0.0	501.0	-1.595	-0.108	
12.0	0.0	0.0	0.0	0.0	500.0	-1.598	-0.082	
13.0	0.0	0.0	0.0	0.0	500.0	-1.602	-0.108	
14.0	0.0	0.0	0.0	0.0	500.0	-1.605	-0.097	
15.0	0.0	0.0	0.0	0.0	499.0	-1.608	-0.105	
0.0	0.0	0.0	0.0	0.0	498.0	-1.611	-0.047	
1.0	0.0	0.0	0.0	0.0	497.0	-1.621	-0.038	
2.0	0.0	0.0	0.0	0.0	494.0	-1.621	0.006	
3.0	0.0	0.0	0.0	0.0	493.0	-1.615	0.032	
4.0	0.0	0.0	0.0	0.0	493.0	-1.595	0.056	
5.0	0.0	0.0	0.0	0.0	493.0	-1.569	0.05	
6.0	0.0	0.0	0.0	0.0	495.0	-1.531	0.044	
7.0	0.0	0.0	0.0	0.0	496.0	-1.486	-0.141	
8.0	0.0	0.0	0.0	0.0	497.0	-1.428	-0.524	
9.0	0.0	0.0	0.0	0.0	498.0	-1.366	-0.943	
10.0	0.0	0.0	0.0	0.0	501.0	-1.302	-0.688	
11.0	0.0	0.0	0.0	0.0	503.0	-1.234	-0.261	
12.0	0.0	0.0	0.0	0.0	506.0	-1.16	0.264	
13.0	0.0	0.0	0.0	0.0	507.0	-1.086	0.589	
14.0	0.0	0.0	0.0	0.0	508.0	-1.018	0.536	
15.0	0.0	0.0	0.0	0.0	512.0	-0.947	0.313	
0.0	0.0	0.0	0.0	0.0	515.0	-0.88	0.152	
1.0	0.0	0.0	0.0	0.0	516.0	-0.809	-0.062	
2.0	0.0	0.0	0.0	0.0	519.0	-0.744	-0.223	
3.0	0.0	0.0	0.0	0.0	519.0	-0.683	-0.319	
4.0	0.0	0.0	0.0	0.0	520.0	-0.622	-0.401	
5.0	0.0	0.0	0.0	0.0	521.0	-0.558	-0.489	
6.0	0.0	0.0	0.0	0.0	521.0	-0.493	-0.524	
7.0	0.0	0.0	0.0	0.0	522.0	-0.425	-0.469	
8.0	0.0	0.0	0.0	0.0	521.0	-0.361	-0.396	
9.0	0.0	0.0	0.0	0.0	523.0	-0.293	-0.378	
10.0	0.0	0.0	0.0	0.0	523.0	-0.226	-0.293	
11.0	0.0	0.0	0.0	0.0	522.0	-0.164	-0.105	
12.0	0.0	0.0	0.0	0.0	522.0	-0.106	-0.015	
13.0	0.0	0.0	0.0	0.0	521.0	-0.052	0.009	
14.0	0.0	0.0	0.0	0.0	522.0	0.0	0.111	
15.0	0.0	0.0	0.0	0.0	521.0	0.048	0.1	
0.0	0.0	0.0	0.0	0.0	520.0	0.09	0.105	
1.0	0.0	0.0	0.0	0.0	521.0	0.129	0.044	
2.0	0.0	0.0	0.0	0.0	522.0	0.164	-0.023	
3.0	0.0	0.0	0.0	0.0	523.0	0.2	-0.07	
4.0	0.0	0.0	0.0	0.0	524.0	0.229	-0.064	
5.0	0.0	0.0	0.0	0.0	523.0	0.255	-0.091	
6.0	0.0	0.0	0.0	0.0	522.0	0.284	-0.108	
7.0	0.0	0.0	0.0	0.0	521.0	0.306	-0.111	
8.0	0.0	0.0	0.0	0.0	520.0	0.332	-0.097	
9.0	0.0	0.0	0.0	0.0	519.0	0.354	-0.07	
10.0	0.0	0.0	0.0	0.0	518.0	0.377	0.05	
11.0	0.0	0.0	0.0	0.0	518.0	0.4	0.091	
12.0	0.0	0.0	0.0	0.0	518.0	0.419	0.164	
13.0	0.0	0.0	0.0	0.0	518.0	0.438	0.208	
14.0	0.0	0.0	0.0	0.0	518.0	0.454	0.211	
15.0	0.0	0.0	0.0	0.0	516.0	0.467	0.243	
0.0	0.0	0.0	0.0	0.0	513.0	0.477	0.296	
1.0	0.0	0.0	0.0	0.0	514.0	0.487	0.316	
2.0	0.0	0.0	0.0	0.0	513.0	0.493	0.328	
3.0	0.0	0.0	0.0	0.0	513.0	0.5	0.284	
4.0	0.0	0.0	0.0	0.0	513.0	0.509	0.299	
5.0	0.0	0.0	0.0	0.0	512.0	0.516	0.293	
6.0	0.0	0.0	0.0	0.0	511.0	0.525	0.305	
7.0	0.0	0.0	0.0	0.0	510.0	0.532	0.281	
8.0	0.0	0.0	0.0	0.0	512.0	0.538	0.281	
9.0	0.0	0.0	0.0	0.0	512.0	0.545	0.275	
10.0	0.0	0.0	0.0	0.0	513.0	0.548	0.272	
11.0	0.0	0.0	0.0	0.0	512.0	0.551	0.24	
12.0	0.0	0.0	0.0	0.0	511.0	0.551	0.185	
13.0	0.0	0.0	0.0	0.0	510.0	0.548	0.114	
14.0	0.0	0.0	0.0	0.0	510.0	0.545	0.097	
15.0	0.0	0.0	0.0	0.0	509.0	0.538	0.108	
0.0	0.0	0.0	0.0	0.0	508.0	0.532	0.062	
1.0	0.0	0.0	0.0	0.0	508.0	0.522	0.044	
2.0	0.0	0.0	0.0	0.0	506.0	0.516	0.105	
3.0	0.0	0.0	0.0	0.0	504.0	0.506	0.094	
4.0	0.0	0.0	0.0	0.0	504.0	0.496	0.012	
5.0	0.0	0.0	0.0	0.0	504.0	0.487	-0.053	
6.0	0.0	0.0	0.0	0.0	504.0	0.48	-0.141	
7.0	0.0	0.0	0.0	0.0	504.0	0.471	-0.167	
8.0	0.0	0.0	0.0	0.0	504.0	0.461	-0.211	
9.0	0.0	0.0	0.0	0.0	503.0	0.451	-0.258	
10.0	0.0	0.0	0.0	0.0	502.0	0.438	-0.36	
11.0	0.0	0.0	0.0	0.0	500.0	0.425	-0.053	
12.0	0.0	0.0	0.0	0.0	499.0	0.406	0.87	
13.0	0.0	0.0	0.0	0.0	499.0	0.387	1.494	
14.0	0.0	0.0	0.0	0.0	500.0	0.364	0.981	
15.0	0.0	0.0	0.0	0.0	500.0	0.342	-0.012	
0.0	0.0	0.0	0.0	0.0	500.0	0.313	-0.469	
1.0	0.0	0.0	0.0	0.0	498.0	0.287	-0.442	
2.0	0.0	0.0	0.0	0.0	499.0	0.261	-0.322	
3.0	0.0	0.0	0.0	0.0	500.0	0.242	-0.193	
4.0	0.0	0.0	0.0	0.0	499.0	0.219	-0.1	
5.0	0.0	0.0	0.0	0.0	498.0	0.2	-0.053	
6.0	0.0	0.0	0.0	0.0	496.0	0.184	-0.064	
7.0	0.0	0.0	0.0	0.0	495.0	0.168	-0.12	
8.0	0.0	0.0	0.0	0.0	494.0	0.151	-0.126	
9.0	0.0	0.0	0.0	0.0	493.0	0.139	-0.082	
10.0	0.0	0.0	0.0	0.0	493.0	0.122	0.009	
11.0	0.0	0.0	0.0	0.0	494.0	0.106	0.044	
12.0	0.0	0.0	0.0	0.0	496.0	0.087	0.064	
13.0	0.0	0.0	0.0	0.0	499.0	0.068	0.108	
14.0	0.0	0.0	0.0	0.0	501.0	0.048	0.17	
15.0	0.0	0.0	0.0	0.0	502.0	0.035	0.202	
0.0	0.0	0.0	0.0	0.0	500.0	0.023	0.299	
1.0	0.0	0.0	0.0	0.0	500.0	0.016	0.516	
2.0	0.0	0.0	0.0	0.0	499.0	0.006	0.639	
3.0	0.0	0.0	0.0	0.0	498.0	0.0	0.668	
4.0	0.0	0.0	0.0	0.0	499.0	-0.01	0.677	
5.0	0.0	0.0	0.0	0.0	499.0	-0.023	0.785	
6.0	0.0	0.0	0.0	0.0	498.0	-0.035	0.882	
7.0	0.0	0.0	0.0	0.0	498.0	-0.052	0.879	
8.0	0.0	0.0	0.0	0.0	499.0	-0.071	0.721	
9.0	0.0	0.0	0.0	0.0	499.0	-0.093	0.501	
10.0	0.0	0.0	0.0	0.0	499.0	-0.113	0.226	
11.0	0.0	0.0	0.0	0.0	500.0	-0.135	0.006	
12.0	0.0	0.0	0.0	0.0	502.0	-0.151	-0.217	
13.0	0.0	0.0	0.0	0.0	505.0	-0.164	-0.375	
14.0	0.0	0.0	0.0	0.0	506.0	-0.171	-0.486	
15.0	0.0	0.0	0.0	0.0	507.0	-0.174	-0.58	
0.0	0.0	0.0	0.0	0.0	510.0	-0.171	-0.633	
1.0	0.0	0.0	0.0	0.0	511.0	-0.168	-0.65	
2.0	0.0	0.0	0.0	0.0	510.0	-0.161	-0.627	
3.0	0.0	0.0	0.0	0.0	512.0	-0.155	-0.639	
4.0	0.0	0.0	0.0	0.0	515.0	-0.142	-0.653	
5.0	0.0	0.0	0.0	0.0	516.0	-0.129	-0.659	
6.0	0.0	0.0	0.0	0.0	518.0	-0.113	-0.656	
7.0	0.0	0.0	0.0	0.0	520.0	-0.103	-0.656	
8.0	0.0	0.0	0.0	0.0	522.0	-0.093	-0.609	
9.0	0.0	0.0	0.0	0.0	522.0	-0.084	-0.58	
10.0	0.0	0.0	0.0	0.0	522.0	-0.077	-0.542	
11.0	0.0	0.0	0.0	0.0	524.0	-0.074	-0.504	
12.0	0.0	0.0	0.0	0.0	524.0	-0.071	-0.419	
13.0	0.0	0.0	0.0	0.0	525.0	-0.071	-0.366	
14.0	0.0	0.0	0.0	0.0	526.0	-0.077	-0.34	
15.0	0.0	0.0	0.0	0.0	524.0	-0.081	-0.313	
0.0	0.0	0.0	0.0	0.0	524.0	-0.09	-0.287	
1.0	0.0	0.0	0.0	0.0	523.0	-0.1	-0.246	
2.0	0.0	0.0	0.0	0.0	523.0	-0.106	-0.164	
3.0	0.0	0.0	0.0	0.0	522.0	-0.113	-0.138	
4.0	0.0	0.0	0.0	0.0	520.0	-0.119	-0.07	
5.0	0.0	0.0	0.0	0.0	519.0	-0.119	-0.091	
6.0	0.0	0.0	0.0	0.0	515.0	-0.122	0.0	
7.0	0.0	0.0	0.0	0.0	511.0	-0.126	0.012	
8.0	0.0	0.0	0.0	0.0	510.0	-0.126	0.05	
9.0	0.0	0.0	0.0	0.0	508.0	-0.129	0.064	
10.0	0.0	0.0	0.0	0.0	506.0	-0.132	0.129	
11.0	0.0	0.0	0.0	0.0	505.0	-0.139	0.12	
12.0	0.0	0.0	0.0	0.0	505.0	-0.145	0.129	
13.0	0.0	0.0	0.0	0.0	508.0	-0.151	0.138	
14.0	0.0	0.0	0.0	0.0	509.0	-0.158	0.103	
15.0	0.0	0.0	0.0	0.0	511.0	-0.164	0.064	
0.0	0.0	0.0	0.0	0.0	512.0	-0.171	0.044	
1.0	0.0	0.0	0.0	0.0	513.0	-0.174	0.05	
2.0	0.0	0.0	0.0	0.0	514.0	-0.177	0.07	
3.0	0.0	0.0	0.0	0.0	516.0	-0.18	0.085	
4.0	0.0	0.0	0.0	0.0	516.0	-0.18	0.094	
5.0	0.0	0.0	0.0	0.0	516.0	-0.18	0.132	
6.0	0.0	0.0	0.0	0.0	515.0	-0.18	0.141	
7.0	0.0	0.0	0.0	0.0	514.0	-0.177	0.155	
8.0	0.0	0.0	0.0	0.0	513.0	-0.174	0.196	
9.0	0.0	0.0	0.0	0.0	512.0	-0.171	0.176	
10.0	0.0	0.0	0.0	0.0	510.0	-0.171	0.173	
11.0	0.0	0.0	0.0	0.0	508.0	-0.171	0.164	
12.0	0.0	0.0	0.0	0.0	508.0	-0.174	0.108	
13.0	0.0	0.0	0.0	0.0	506.0	-0.18	0.006	
14.0	0.0	0.0	0.0	0.0	505.0	-0.187	-0.117	
15.0	0.0	0.0	0.0	0.0	504.0	-0.197	-0.126	
0.0	0.0	0.0	0.0	0.0	504.0	-0.209	-0.135	
1.0	0.0	0.0	0.0	0.0	504.0	-0.226	-0.114	
2.0	0.0	0.0	0.0	0.0	507.0	-0.245	-0.094	
3.0	0.0	0.0	0.0	0.0	509.0	-0.267	-0.185	
4.0	0.0	0.0	0.0	0.0	510.0	-0.293	0.091	
5.0	0.0	0.0	0.0	0.0	510.0	-0.322	0.964	
6.0	0.0	0.0	0.0	0.0	509.0	-0.351	1.494	
7.0	0.0	0.0	0.0	0.0	508.0	-0.383	1.412	
8.0	0.0	0.0	0.0	0.0	507.0	-0.413	0.372	
9.0	0.0	0.0	0.0	0.0	502.0	-0.448	-0.199	
10.0	0.0	0.0	0.0	0.0	501.0	-0.483	-0.39	
11.0	0.0	0.0	0.0	0.0	499.0	-0.516	-0.387	
12.0	0.0	0.0	0.0	0.0	496.0	-0.545	-0.366	
13.0	0.0	0.0	0.0	0.0	496.0	-0.574	-0.369	
14.0	0.0	0.0	0.0	0.0	497.0	-0.603	-0.302	
15.0	0.0	0.0	0.0	0.0	496.0	-0.635	-0.264	
0.0	0.0	0.0	0.0	0.0	495.0	-0.664	-0.196	
1.0	0.0	0.0	0.0	0.0	495.0	-0.696	-0.173	
2.0	0.0	0.0	0.0	0.0	495.0	-0.728	-0.155	
3.0	0.0	0.0	0.0	0.0	495.0	-0.764	-0.126	
4.0	0.0	0.0	0.0	0.0	497.0	-0.796	-0.094	
5.0	0.0	0.0	0.0	0.0	500.0	-0.828	-0.079	
6.0	0.0	0.0	0.0	0.0	502.0	-0.857	-0.038	
7.0	0.0	0.0	0.0	0.0	502.0	-0.893	-0.076	
8.0	0.0	0.0	0.0	0.0	504.0	-0.922	-0.026	
9.0	0.0	0.0	0.0	0.0	504.0	-0.954	0.07	
10.0	0.0	0.0	0.0	0.0	502.0	-0.983	0.114	
11.0	0.0	0.0	0.0	0.0	502.0	-1.009	0.105	
12.0	0.0	0.0	0.0	0.0	502.0	-1.038	0.129	
13.0	0.0	0.0	0.0	0.0	500.0	-1.063	0.141	
14.0	0.0	0.0	0.0	0.0	499.0	-1.083	0.144	
15.0	0.0	0.0	0.0	0.0	499.0	-1.102	0.108	
0.0	0.0	0.0	0.0	0.0	498.0	-1.115	0.044	
1.0	0.0	0.0	0.0	0.0	497.0	-1.121	-0.082	
2.0	0.0	0.0	0.0	0.0	496.0	-1.125	-0.226	
3.0	0.0	0.0	0.0	0.0	498.0	-1.128	-0.296	
4.0	0.0	0.0	0.0	0.0	501.0	-1.128	-0.352	
5.0	0.0	0.0	0.0	0.0	503.0	-1.125	-0.384	
6.0	0.0	0.0	0.0	0.0	505.0	-1.125	-0.366	
7.0	0.0	0.0	0.0	0.0	508.0	-1.125	-0.349	
8.0	0.0	0.0	0.0	0.0	511.0	-1.118	-0.346	
9.0	0.0	0.0	0.0	0.0	515.0	-1.115	-0.299	
10.0	0.0	0.0	0.0	0.0	518.0	-1.102	-0.246	
11.0	0.0	0.0	0.0	0.0	519.0	-1.089	-0.226	
12.0	0.0	0.0	0.0	0.0	521.0	-1.073	-0.164	
13.0	0.0	0.0	0.0	0.0	521.0	-1.06	-0.176	
14.0	0.0	0.0	0.0	0.0	523.0	-1.044	-0.152	
15.0	0.0	0.0	0.0	0.0	524.0	-1.022	-0.114	
0.0	0.0	0.0	0.0	0.0	526.0	-1.002	-0.076	
1.0	0.0	0.0	0.0	0.0	527.0	-0.976	-0.038	
2.0	0.0	0.0	0.0	0.0	528.0	-0.947	-0.026	
3.0	0.0	0.0	0.0	0.0	528.0	-0.918	-0.018	
4.0	0.0	0.0	0.0	0.0	528.0	-0.886	-0.047	
5.0	0.0	0.0	0.0	0.0	528.0	-0.857	0.021	
6.0	0.0	0.0	0.0	0.0	527.0	-0.828	0.026	
7.0	0.0	0.0	0.0	0.0	526.0	-0.796	0.032	
8.0	0.0	0.0	0.0	0.0	525.0	-0.77	0.047	
9.0	0.0	0.0	0.0	0.0	523.0	-0.744	0.062	
10.0	0.0	0.0	0.0	0.0	521.0	-0.715	0.035	
11.0	0.0	0.0	0.0	0.0	521.0	-0.693	0.044	
12.0	0.0	0.0	0.0	0.0	521.0	-0.67	0.047	
13.0	0.0	0.0	0.0	0.0	519.0	-0.645	0.076	
14.0	0.0	0.0	0.0	0.0	518.0	-0.622	0.05	
15.0	0.0	0.0	0.0	0.0	516.0	-0.596	0.088	
0.0	0.0	0.0	0.0	0.0	515.0	-0.574	0.091	
1.0	0.0	0.0	0.0	0.0	515.0	-0.554	0.079	
2.0	0.0	0.0	0.0	0.0	517.0	-0.532	0.091	
3.0	0.0	0.0	0.0	0.0	519.0	-0.512	0.088	
4.0	0.0	0.0	0.0	0.0	519.0	-0.493	0.094	
5.0	0.0	0.0	0.0	0.0	519.0	-0.474	0.079	
6.0	0.0	0.0	0.0	0.0	519.0	-0.454	0.097	
7.0	0.0	0.0	0.0	0.0	519.0	-0.438	0.044	
8.0	0.0	0.0	0.0	0.0	517.0	-0.419	0.079	
9.0	0.0	0.0	0.0	0.0	515.0	-0.4	0.038	
10.0	0.0	0.0	0.0	0.0	516.0	-0.383	0.0	
11.0	0.0	0.0	0.0	0.0	518.0	-0.364	0.035	
12.0	0.0	0.0	0.0	0.0	515.0	-0.348	0.026	
13.0	0.0	0.0	0.0	0.0	514.0	-0.329	0.026	
14.0	0.0	0.0	0.0	0.0	515.0	-0.309	0.044	
15.0	0.0	0.0	0.0	0.0	515.0	-0.29	0.05	
0.0	0.0	0.0	0.0	0.0	514.0	-0.271	0.035	
1.0	0.0	0.0	0.0	0.0	513.0	-0.255	0.126	
2.0	0.0	0.0	0.0	0.0	514.0	-0.235	0.161	
3.0	0.0	0.0	0.0	0.0	512.0	-0.219	0.111	
4.0	0.0	0.0	0.0	0.0	510.0	-0.203	0.026	
5.0	0.0	0.0	0.0	0.0	510.0	-0.187	-0.076	
6.0	0.0	0.0	0.0	0.0	511.0	-0.171	-0.067	
7.0	0.0	0.0	0.0	0.0	510.0	-0.158	-0.067	
8.0	0.0	0.0	0.0	0.0	508.0	-0.142	-0.082	
9.0	0.0	0.0	0.0	0.0	507.0	-0.129	-0.111	
10.0	0.0	0.0	0.0	0.0	506.0	-0.116	-0.105	
11.0	0.0	0.0	0.0	0.0	506.0	-0.106	0.372	
12.0	0.0	0.0	0.0	0.0	506.0	-0.097	1.295	
13.0	0.0	0.0	0.0	0.0	505.0	-0.087	1.494	
14.0	0.0	0.0	0.0	0.0	504.0	-0.077	0.771	
15.0	0.0	0.0	0.0	0.0	505.0	-0.064	-0.053	
0.0	0.0	0.0	0.0	0.0	505.0	-0.055	-0.428	
1.0	0.0	0.0	0.0	0.0	504.0	-0.048	-0.48	
2.0	0.0	0.0	0.0	0.0	505.0	-0.042	-0.445	
3.0	0.0	0.0	0.0	0.0	504.0	-0.035	-0.407	
4.0	0.0	0.0	0.0	0.0	503.0	-0.032	-0.39	
5.0	0.0	0.0	0.0	0.0	503.0	-0.026	-0.366	
6.0	0.0	0.0	0.0	0.0	502.0	-0.016	-0.305	
7.0	0.0	0.0	0.0	0.0	502.0	-0.006	-0.287	
8.0	0.0	0.0	0.0	0.0	503.0	0.0	-0.252	
9.0	0.0	0.0	0.0	0.0	502.0	0.003	-0.211	
10.0	0.0	0.0	0.0	0.0	501.0	0.01	-0.146	
11.0	0.0	0.0	0.0	0.0	502.0	0.013	-0.132	
12.0	0.0	0.0	0.0	0.0	502.0	0.016	-0.091	
13.0	0.0	0.0	0.0	0.0	502.0	0.01	-0.064	
14.0	0.0	0.0	0.0	0.0	502.0	-0.003	-0.041	
15.0	0.0	0.0	0.0	0.0	500.0	-0.023	0.032	
0.0	0.0	0.0	0.0	0.0	500.0	-0.048	0.114	
1.0	0.0	0.0	0.0	0.0	499.0	-0.074	0.146	
2.0	0.0	0.0	0.0	0.0	499.0	-0.097	0.188	
3.0	0.0	0.0	0.0	0.0	499.0	-0.119	0.214	
4.0	0.0	0.0	0.0	0.0	498.0	-0.139	0.205	
5.0	0.0	0.0	0.0	0.0	499.0	-0.151	0.22	
6.0	0.0	0.0	0.0	0.0	500.0	-0.161	0.164	
7.0	0.0	0.0	0.0	0.0	500.0	-0.168	0.082	
8.0	0.0	0.0	0.0	0.0	503.0	-0.174	-0.053	
9.0	0.0	0.0	0.0	0.0	503.0	-0.177	-0.164	
10.0	0.0	0.0	0.0	0.0	504.0	-0.184	-0.243	
11.0	0.0	0.0	0.0	0.0	505.0	-0.187	-0.267	
12.0	0.0	0.0	0.0	0.0	507.0	-0.19	-0.281	
13.0	0.0	0.0	0.0	0.0	507.0	-0.197	-0.287	
14.0	0.0	0.0	0.0	0.0	510.0	-0.197	-0.237	
15.0	0.0	0.0	0.0	0.0	509.0	-0.2	-0.24	
0.0	0.0	0.0	0.0	0.0	509.0	-0.2	-0.193	
1.0	0.0	0.0	0.0	0.0	510.0	-0.2	-0.158	
2.0	0.0	0.0	0.0	0.0	512.0	-0.193	-0.117	
3.0	0.0	0.0	0.0	0.0	513.0	-0.187	-0.108	
4.0	0.0	0.0	0.0	0.0	515.0	-0.18	-0.07	
5.0	0.0	0.0	0.0	0.0	515.0	-0.171	-0.062	
6.0	0.0	0.0	0.0	0.0	517.0	-0.158	-0.047	
7.0	0.0	0.0	0.0	0.0	519.0	-0.145	-0.009	
8.0	0.0	0.0	0.0	0.0	523.0	-0.129	-0.015	
9.0	0.0	0.0	0.0	0.0	524.0	-0.113	-0.012	
10.0	0.0	0.0	0.0	0.0	525.0	-0.097	0.026	
11.0	0.0	0.0	0.0	0.0	526.0	-0.081	0.003	
12.0	0.0	0.0	0.0	0.0	527.0	-0.068	0.029	
13.0	0.0	0.0	0.0	0.0	526.0	-0.055	0.047	
14.0	0.0	0.0	0.0	0.0	526.0	-0.045	0.047	
15.0	0.0	0.0	0.0	0.0	526.0	-0.032	0.021	
0.0	0.0	0.0	0.0	0.0	525.0	-0.019	0.021	
1.0	0.0	0.0	0.0	0.0	523.0	-0.006	0.009	
2.0	0.0	0.0	0.0	0.0	520.0	0.006	-0.012	
3.0	0.0	0.0	0.0	0.0	518.0	0.023	-0.05	
4.0	0.0	0.0	0.0	0.0	517.0	0.035	-0.023	
5.0	0.0	0.0	0.0	0.0	516.0	0.048	-0.026	
6.0	0.0	0.0	0.0	0.0	517.0	0.058	-0.023	
7.0	0.0	0.0	0.0	0.0	519.0	0.071	-0.021	
8.0	0.0	0.0	0.0	0.0	518.0	0.084	-0.009	
9.0	0.0	0.0	0.0	0.0	519.0	0.097	-0.009	
10.0	0.0	0.0	0.0	0.0	521.0	0.106	0.006	
11.0	0.0	0.0	0.0	0.0	520.0	0.116	0.009	
12.0	0.0	0.0	0.0	0.0	519.0	0.126	0.009	
13.0	0.0	0.0	0.0	0.0	519.0	0.139	0.003	
14.0	0.0	0.0	0.0	0.0	516.0	0.148	0.006	
15.0	0.0	0.0	0.0	0.0	515.0	0.158	0.018	
0.0	0.0	0.0	0.0	0.0	514.0	0.171	0.032	
1.0	0.0	0.0	0.0	0.0	514.0	0.18	0.035	
2.0	0.0	0.0	0.0	0.0	512.0	0.187	0.05	
3.0	0.0	0.0	0.0	0.0	511.0	0.193	0.044	
4.0	0.0	0.0	0.0	0.0	510.0	0.197	0.059	
5.0	0.0	0.0	0.0	0.0	508.0	0.2	0.059	
6.0	0.0	0.0	0.0	0.0	507.0	0.2	0.161	
7.0	0.0	0.0	0.0	0.0	508.0	0.2	0.164	
8.0	0.0	0.0	0.0	0.0	506.0	0.2	0.088	
9.0	0.0	0.0	0.0	0.0	508.0	0.2	0.026	
10.0	0.0	0.0	0.0	0.0	508.0	0.2	-0.035	
11.0	0.0	0.0	0.0	0.0	510.0	0.2	-0.07	
12.0	0.0	0.0	0.0	0.0	510.0	0.197	-0.023	
13.0	0.0	0.0	0.0	0.0	510.0	0.193	-0.056	
14.0	0.0	0.0	0.0	0.0	510.0	0.193	-0.152	
15.0	0.0	0.0	0.0	0.0	511.0	0.187	0.003	
0.0	0.0	0.0	0.0	0.0	510.0	0.184	0.671	
1.0	0.0	0.0	0.0	0.0	508.0	0.18	1.418	
2.0	0.0	0.0	0.0	0.0	508.0	0.18	1.356	
3.0	0.0	0.0	0.0	0.0	508.0	0.177	0.539	
4.0	0.0	0.0	0.0	0.0	507.0	0.174	-0.132	
5.0	0.0	0.0	0.0	0.0	505.0	0.164	-0.442	
6.0	0.0	0.0	0.0	0.0	504.0	0.158	-0.469	
7.0	0.0	0.0	0.0	0.0	503.0	0.151	-0.434	
8.0	0.0	0.0	0.0	0.0	500.0	0.145	-0.357	
9.0	0.0	0.0	0.0	0.0	500.0	0.142	-0.337	
10.0	0.0	0.0	0.0	0.0	500.0	0.145	-0.331	
11.0	0.0	0.0	0.0	0.0	499.0	0.151	-0.281	
12.0	0.0	0.0	0.0	0.0	499.0	0.151	-0.267	
13.0	0.0	0.0	0.0	0.0	496.0	0.148	-0.211	
14.0	0.0	0.0	0.0	0.0	496.0	0.142	-0.144	
15.0	0.0	0.0	0.0	0.0	497.0	0.139	-0.085	
0.0	0.0	0.0	0.0	0.0	498.0	0.132	-0.059	
1.0	0.0	0.0	0.0	0.0	498.0	0.126	-0.041	
2.0	0.0	0.0	0.0	0.0	498.0	0.113	-0.006	
3.0	0.0	0.0	0.0	0.0	498.0	0.097	0.003	
4.0	0.0	0.0	0.0	0.0	499.0	0.074	0.082	
5.0	0.0	0.0	0.0	0.0	499.0	0.048	0.141	
6.0	0.0	0.0	0.0	0.0	496.0	0.026	0.193	
7.0	0.0	0.0	0.0	0.0	496.0	0.003	0.234	
8.0	0.0	0.0	0.0	0.0	496.0	-0.016	0.234	
9.0	0.0	0.0	0.0	0.0	495.0	-0.032	0.258	
10.0	0.0	0.0	0.0	0.0	494.0	-0.042	0.24	
11.0	0.0	0.0	0.0	0.0	495.0	-0.052	0.182	
12.0	0.0	0.0	0.0	0.0	497.0	-0.058	0.082	
13.0	0.0	0.0	0.0	0.0	498.0	-0.064	-0.076	
14.0	0.0	0.0	0.0	0.0	500.0	-0.071	-0.173	
15.0	0.0	0.0	0.0	0.0	501.0	-0.077	-0.24	
0.0	0.0	0.0	0.0	0.0	502.0	-0.081	-0.284	
1.0	0.0	0.0	0.0	0.0	502.0	-0.087	-0.258	
2.0	0.0	0.0	0.0	0.0	504.0	-0.093	-0.255	
3.0	0.0	0.0	0.0	0.0	508.0	-0.1	-0.24	
4.0	0.0	0.0	0.0	0.0	510.0	-0.106	-0.202	
5.0	0.0	0.0	0.0	0.0	508.0	-0.11	-0.185	
6.0	0.0	0.0	0.0	0.0	510.0	-0.116	-0.158	
7.0	0.0	0.0	0.0	0.0	512.0	-0.122	-0.129	
8.0	0.0	0.0	0.0	0.0	515.0	-0.126	-0.117	
9.0	0.0	0.0	0.0	0.0	517.0	-0.129	-0.094	
10.0	0.0	0.0	0.0	0.0	518.0	-0.129	-0.076	
11.0	0.0	0.0	0.0	0.0	520.0	-0.126	-0.062	
12.0	0.0	0.0	0.0	0.0	523.0	-0.119	-0.073	
13.0	0.0	0.0	0.0	0.0	525.0	-0.11	-0.023	
14.0	0.0	0.0	0.0	0.0	526.0	-0.103	-0.015	
15.0	0.0	0.0	0.0	0.0	528.0	-0.093	-0.023	
0.0	0.0	0.0	0.0	0.0	527.0	-0.084	-0.006	
1.0	0.0	0.0	0.0	0.0	526.0	-0.081	-0.012	
2.0	0.0	0.0	0.0	0.0	524.0	-0.071	0.0	
3.0	0.0	0.0	0.0	0.0	522.0	-0.058	-0.015	
4.0	0.0	0.0	0.0	0.0	519.0	-0.048	-0.018	
5.0	0.0	0.0	0.0	0.0	518.0	-0.035	-0.015	
6.0	0.0	0.0	0.0	0.0	517.0	-0.023	-0.012	
7.0	0.0	0.0	0.0	0.0	515.0	-0.003	0.0	
8.0	0.0	0.0	0.0	0.0	513.0	0.013	-0.044	
9.0	0.0	0.0	0.0	0.0	511.0	0.032	0.006	
10.0	0.0	0.0	0.0	0.0	510.0	0.052	-0.021	
11.0	0.0	0.0	0.0	0.0	509.0	0.071	-0.018	
12.0	0.0	0.0	0.0	0.0	509.0	0.087	0.003	
13.0	0.0	0.0	0.0	0.0	507.0	0.1	-0.021	
14.0	0.0	0.0	0.0	0.0	509.0	0.116	-0.015	
15.0	0.0	0.0	0.0	0.0	511.0	0.129	0.012	
0.0	0.0	0.0	0.0	0.0	511.0	0.142	0.003	
1.0	0.0	0.0	0.0	0.0	513.0	0.151	0.015	
2.0	0.0	0.0	0.0	0.0	514.0	0.164	0.015	
3.0	0.0	0.0	0.0	0.0	514.0	0.174	0.021	
4.0	0.0	0.0	0.0	0.0	513.0	0.184	0.018	
5.0	0.0	0.0	0.0	0.0	510.0	0.19	-0.003	
6.0	0.0	0.0	0.0	0.0	510.0	0.2	0.0	
7.0	0.0	0.0	0.0	0.0	508.0	0.206	0.038	
8.0	0.0	0.0	0.0	0.0	505.0	0.209	0.035	
9.0	0.0	0.0	0.0	0.0	505.0	0.216	0.053	
10.0	0.0	0.0	0.0	0.0	505.0	0.222	0.088	
11.0	0.0	0.0	0.0	0.0	505.0	0.226	0.149	
12.0	0.0	0.0	0.0	0.0	506.0	0.229	0.12	
13.0	0.0	0.0	0.0	0.0	507.0	0.232	0.053	
14.0	0.0	0.0	0.0	0.0	508.0	0.242	-0.026	
15.0	0.0	0.0	0.0	0.0	510.0	0.245	-0.041	
0.0	0.0	0.0	0.0	0.0	509.0	0.255	-0.035	
1.0	0.0	0.0	0.0	0.0	508.0	0.261	-0.056	
2.0	0.0	0.0	0.0	0.0	508.0	0.267	-0.035	
3.0	0.0	0.0	0.0	0.0	507.0	0.274	-0.097	
4.0	0.0	0.0	0.0	0.0	506.0	0.28	0.24	
5.0	0.0	0.0	0.0	0.0	505.0	0.287	1.137	
6.0	0.0	0.0	0.0	0.0	505.0	0.293	1.494	
7.0	0.0	0.0	0.0	0.0	505.0	0.303	1.049	
8.0	0.0	0.0	0.0	0.0	503.0	0.309	0.182	
9.0	0.0	0.0	0.0	0.0	504.0	0.313	-0.316	
10.0	0.0	0.0	0.0	0.0	503.0	0.313	-0.448	
11.0	0.0	0.0	0.0	0.0	501.0	0.316	-0.425	
12.0	0.0	0.0	0.0	0.0	500.0	0.319	-0.39	
13.0	0.0	0.0	0.0	0.0	500.0	0.322	-0.357	
14.0	0.0	0.0	0.0	0.0	499.0	0.325	-0.322	
15.0	0.0	0.0	0.0	0.0	498.0	0.335	-0.284	
0.0	0.0	0.0	0.0	0.0	499.0	0.345	-0.243	
1.0	0.0	0.0	0.0	0.0	498.0	0.351	-0.188	
2.0	0.0	0.0	0.0	0.0	497.0	0.354	-0.105	
3.0	0.0	0.0	0.0	0.0	496.0	0.358	-0.05	
4.0	0.0	0.0	0.0	0.0	495.0	0.358	-0.05	
5.0	0.0	0.0	0.0	0.0	494.0	0.354	0.006	
6.0	0.0	0.0	0.0	0.0	493.0	0.351	0.064	
7.0	0.0	0.0	0.0	0.0	493.0	0.345	0.079	
8.0	0.0	0.0	0.0	0.0	496.0	0.332	0.132	
9.0	0.0	0.0	0.0	0.0	496.0	0.319	0.173	
10.0	0.0	0.0	0.0	0.0	497.0	0.3	0.211	
11.0	0.0	0.0	0.0	0.0	496.0	0.284	0.258	
12.0	0.0	0.0	0.0	0.0	497.0	0.264	0.29	
13.0	0.0	0.0	0.0	0.0	499.0	0.248	0.272	
14.0	0.0	0.0	0.0	0.0	500.0	0.229	0.246	
15.0	0.0	0.0	0.0	0.0	500.0	0.216	0.188	
0.0	0.0	0.0	0.0	0.0	500.0	0.203	0.108	
1.0	0.0	0.0	0.0	0.0	501.0	0.19	-0.029	
2.0	0.0	0.0	0.0	0.0	501.0	0.174	-0.167	
3.0	0.0	0.0	0.0	0.0	503.0	0.161	-0.237	
4.0	0.0	0.0	0.0	0.0	505.0	0.148	-0.287	
5.0	0.0	0.0	0.0	0.0	507.0	0.132	-0.311	
6.0	0.0	0.0	0.0	0.0	510.0	0.116	-0.305	
7.0	0.0	0.0	0.0	0.0	511.0	0.103	-0.278	
8.0	0.0	0.0	0.0	0.0	512.0	0.09	-0.264	
9.0	0.0	0.0	0.0	0.0	512.0	0.077	-0.24	
10.0	0.0	0.0	0.0	0.0	511.0	0.064	-0.22	
11.0	0.0	0.0	0.0	0.0	513.0	0.052	-0.199	
12.0	0.0	0.0	0.0	0.0	516.0	0.039	-0.179	
13.0	0.0	0.0	0.0	0.0	515.0	0.029	-0.17	
14.0	0.0	0.0	0.0	0.0	515.0	0.019	-0.135	
15.0	0.0	0.0	0.0	0.0	515.0	0.01	-0.117	
0.0	0.0	0.0	0.0	0.0	515.0	0.003	-0.117	
1.0	0.0	0.0	0.0	0.0	516.0	0.003	-0.094	
2.0	0.0	0.0	0.0	0.0	517.0	0.01	-0.044	
3.0	0.0	0.0	0.0	0.0	518.0	0.019	-0.041	
4.0	0.0	0.0	0.0	0.0	520.0	0.029	-0.021	
5.0	0.0	0.0	0.0	0.0	522.0	0.035	-0.009	
6.0	0.0	0.0	0.0	0.0	521.0	0.039	-0.012	
7.0	0.0	0.0	0.0	0.0	520.0	0.039	0.009	
8.0	0.0	0.0	0.0	0.0	519.0	0.035	0.012	
9.0	0.0	0.0	0.0	0.0	516.0	0.029	0.009	
10.0	0.0	0.0	0.0	0.0	514.0	0.026	-0.006	
11.0	0.0	0.0	0.0	0.0	514.0	0.023	0.021	
12.0	0.0	0.0	0.0	0.0	514.0	0.019	0.023	
13.0	0.0	0.0	0.0	0.0	514.0	0.023	0.009	
14.0	0.0	0.0	0.0	0.0	513.0	0.023	0.021	
15.0	0.0	0.0	0.0	0.0	511.0	0.023	0.029	
0.0	0.0	0.0	0.0	0.0	511.0	0.026	0.032	
1.0	0.0	0.0	0.0	0.0	511.0	0.026	0.023	
2.0	0.0	0.0	0.0	0.0	511.0	0.029	0.041	
3.0	0.0	0.0	0.0	0.0	511.0	0.026	0.023	
4.0	0.0	0.0	0.0	0.0	510.0	0.026	0.029	
5.0	0.0	0.0	0.0	0.0	509.0	0.023	0.021	
6.0	0.0	0.0	0.0	0.0	510.0	0.023	-0.009	
7.0	0.0	0.0	0.0	0.0	511.0	0.019	-0.012	
8.0	0.0	0.0	0.0	0.0	512.0	0.016	0.0	
9.0	0.0	0.0	0.0	0.0	512.0	0.013	0.018	
10.0	0.0	0.0	0.0	0.0	514.0	0.01	0.012	
11.0	0.0	0.0	0.0	0.0	515.0	0.003	-0.009	
12.0	0.0	0.0	0.0	0.0	514.0	0.0	0.009	
13.0	0.0	0.0	0.0	0.0	512.0	-0.003	0.0	
14.0	0.0	0.0	0.0	0.0	511.0	-0.006	0.0	
15.0	0.0	0.0	0.0	0.0	511.0	-0.01	0.026	
0.0	0.0	0.0	0.0	0.0	511.0	-0.013	0.029	
1.0	0.0	0.0	0.0	0.0	509.0	-0.019	0.018	
2.0	0.0	0.0	0.0	0.0	508.0	-0.026	0.0	
3.0	0.0	0.0	0.0	0.0	506.0	-0.032	0.018	
4.0	0.0	0.0	0.0	0.0	505.0	-0.042	0.032	
5.0	0.0	0.0	0.0	0.0	505.0	-0.052	0.064	
6.0	0.0	0.0	0.0	0.0	506.0	-0.061	0.041	
7.0	0.0	0.0	0.0	0.0	507.0	-0.074	0.094	
8.0	0.0	0.0	0.0	0.0	507.0	-0.09	0.161	
9.0	0.0	0.0	0.0	0.0	505.0	-0.106	0.144	
10.0	0.0	0.0	0.0	0.0	505.0	-0.122	0.082	
11.0	0.0	0.0	0.0	0.0	506.0	-0.139	0.006	
12.0	0.0	0.0	0.0	0.0	505.0	-0.158	-0.029	
13.0	0.0	0.0	0.0	0.0	506.0	-0.174	-0.044	
14.0	0.0	0.0	0.0	0.0	505.0	-0.19	-0.047	
15.0	0.0	0.0	0.0	0.0	504.0	-0.203	-0.056	
0.0	0.0	0.0	0.0	0.0	503.0	-0.216	-0.12	
1.0	0.0	0.0	0.0	0.0	503.0	-0.232	0.035	
2.0	0.0	0.0	0.0	0.0	503.0	-0.245	0.75	
3.0	0.0	0.0	0.0	0.0	505.0	-0.258	1.494	
4.0	0.0	0.0	0.0	0.0	504.0	-0.271	1.494	
5.0	0.0	0.0	0.0	0.0	503.0	-0.287	0.425	
6.0	0.0	0.0	0.0	0.0	502.0	-0.3	-0.275	
7.0	0.0	0.0	0.0	0.0	500.0	-0.316	-0.501	
8.0	0.0	0.0	0.0	0.0	499.0	-0.325	-0.504	
9.0	0.0	0.0	0.0	0.0	497.0	-0.335	-0.489	
10.0	0.0	0.0	0.0	0.0	495.0	-0.345	-0.463	
11.0	0.0	0.0	0.0	0.0	495.0	-0.354	-0.398	
12.0	0.0	0.0	0.0	0.0	495.0	-0.367	-0.343	
13.0	0.0	0.0	0.0	0.0	496.0	-0.38	-0.305	
14.0	0.0	0.0	0.0	0.0	497.0	-0.393	-0.264	
15.0	0.0	0.0	0.0	0.0	497.0	-0.409	-0.223	
0.0	0.0	0.0	0.0	0.0	497.0	-0.425	-0.17	
1.0	0.0	0.0	0.0	0.0	497.0	-0.442	-0.152	
2.0	0.0	0.0	0.0	0.0	496.0	-0.454	-0.105	
3.0	0.0	0.0	0.0	0.0	496.0	-0.471	-0.076	
4.0	0.0	0.0	0.0	0.0	495.0	-0.493	-0.035	
5.0	0.0	0.0	0.0	0.0	495.0	-0.516	0.015	
6.0	0.0	0.0	0.0	0.0	494.0	-0.538	0.064	
7.0	0.0	0.0	0.0	0.0	491.0	-0.567	0.114	
8.0	0.0	0.0	0.0	0.0	491.0	-0.596	0.185	
9.0	0.0	0.0	0.0	0.0	489.0	-0.628	0.208	
10.0	0.0	0.0	0.0	0.0	487.0	-0.664	0.243	
11.0	0.0	0.0	0.0	0.0	489.0	-0.696	0.246	
12.0	0.0	0.0	0.0	0.0	489.0	-0.728	0.24	
13.0	0.0	0.0	0.0	0.0	491.0	-0.757	0.179	
14.0	0.0	0.0	0.0	0.0	495.0	-0.786	0.082	
15.0	0.0	0.0	0.0	0.0	497.0	-0.815	-0.062	
0.0	0.0	0.0	0.0	0.0	502.0	-0.844	-0.173	
1.0	0.0	0.0	0.0	0.0	505.0	-0.87	-0.243	
2.0	0.0	0.0	0.0	0.0	511.0	-0.896	-0.305	
3.0	0.0	0.0	0.0	0.0	513.0	-0.918	-0.311	
4.0	0.0	0.0	0.0	0.0	515.0	-0.944	-0.284	
5.0	0.0	0.0	0.0	0.0	516.0	-0.967	-0.275	
6.0	0.0	0.0	0.0	0.0	518.0	-0.993	-0.252	
7.0	0.0	0.0	0.0	0.0	519.0	-1.018	-0.217	
8.0	0.0	0.0	0.0	0.0	519.0	-1.034	-0.196	
9.0	0.0	0.0	0.0	0.0	518.0	-1.054	-0.138	
10.0	0.0	0.0	0.0	0.0	518.0	-1.076	-0.149	
11.0	0.0	0.0	0.0	0.0	517.0	-1.092	-0.117	
12.0	0.0	0.0	0.0	0.0	518.0	-1.105	-0.094	
13.0	0.0	0.0	0.0	0.0	519.0	-1.115	-0.082	
14.0	0.0	0.0	0.0	0.0	519.0	-1.125	-0.07	
15.0	0.0	0.0	0.0	0.0	519.0	-1.131	-0.035	
0.0	0.0	0.0	0.0	0.0	519.0	-1.138	-0.029	
1.0	0.0	0.0	0.0	0.0	523.0	-1.141	0.003	
2.0	0.0	0.0	0.0	0.0	527.0	-1.147	-0.023	
3.0	0.0	0.0	0.0	0.0	529.0	-1.15	0.035	
4.0	0.0	0.0	0.0	0.0	530.0	-1.157	0.053	
5.0	0.0	0.0	0.0	0.0	530.0	-1.167	0.064	
6.0	0.0	0.0	0.0	0.0	528.0	-1.173	0.05	
7.0	0.0	0.0	0.0	0.0	526.0	-1.179	0.056	
8.0	0.0	0.0	0.0	0.0	525.0	-1.183	0.064	
9.0	0.0	0.0	0.0	0.0	523.0	-1.186	0.059	
10.0	0.0	0.0	0.0	0.0	521.0	-1.189	0.108	
11.0	0.0	0.0	0.0	0.0	521.0	-1.189	0.111	
12.0	0.0	0.0	0.0	0.0	520.0	-1.189	0.091	
13.0	0.0	0.0	0.0	0.0	518.0	-1.192	0.082	
14.0	0.0	0.0	0.0	0.0	517.0	-1.192	0.123	
15.0	0.0	0.0	0.0	0.0	515.0	-1.196	0.073	
0.0	0.0	0.0	0.0	0.0	515.0	-1.192	0.076	
1.0	0.0	0.0	0.0	0.0	516.0	-1.183	0.021	
2.0	0.0	0.0	0.0	0.0	515.0	-1.17	0.05	
3.0	0.0	0.0	0.0	0.0	515.0	-1.154	0.012	
4.0	0.0	0.0	0.0	0.0	515.0	-1.128	-0.012	
5.0	0.0	0.0	0.0	0.0	515.0	-1.102	-0.009	
6.0	0.0	0.0	0.0	0.0	515.0	-1.076	-0.044	
7.0	0.0	0.0	0.0	0.0	515.0	-1.057	-0.035	
8.0	0.0	0.0	0.0	0.0	513.0	-1.041	-0.029	
9.0	0.0	0.0	0.0	0.0	512.0	-1.028	0.0	
10.0	0.0	0.0	0.0	0.0	513.0	-1.015	0.044	
11.0	0.0	0.0	0.0	0.0	513.0	-1.002	0.056	
12.0	0.0	0.0	0.0	0.0	512.0	-0.989	-0.015	
13.0	0.0	0.0	0.0	0.0	513.0	-0.98	0.082	
14.0	0.0	0.0	0.0	0.0	513.0	-0.97	0.044	
15.0	0.0	0.0	0.0	0.0	512.0	-0.96	0.044	
0.0	0.0	0.0	0.0	0.0	511.0	-0.951	0.015	
1.0	0.0	0.0	0.0	0.0	510.0	-0.947	-0.003	
2.0	0.0	0.0	0.0	0.0	509.0	-0.938	0.009	
3.0	0.0	0.0	0.0	0.0	508.0	-0.938	-0.015	
4.0	0.0	0.0	0.0	0.0	508.0	-0.931	0.003	
5.0	0.0	0.0	0.0	0.0	508.0	-0.931	0.009	
6.0	0.0	0.0	0.0	0.0	511.0	-0.931	0.021	
7.0	0.0	0.0	0.0	0.0	511.0	-0.931	0.018	
8.0	0.0	0.0	0.0	0.0	509.0	-0.935	0.015	
9.0	0.0	0.0	0.0	0.0	507.0	-0.935	0.038	
10.0	0.0	0.0	0.0	0.0	506.0	-0.938	0.07	
11.0	0.0	0.0	0.0	0.0	505.0	-0.941	0.035	
12.0	0.0	0.0	0.0	0.0	504.0	-0.947	0.108	
13.0	0.0	0.0	0.0	0.0	503.0	-0.947	0.044	
14.0	0.0	0.0	0.0	0.0	500.0	-0.951	0.021	
15.0	0.0	0.0	0.0	0.0	499.0	-0.951	0.021	
0.0	0.0	0.0	0.0	0.0	495.0	-0.954	-0.038	
1.0	0.0	0.0	0.0	0.0	492.0	-0.957	-0.05	
2.0	0.0	0.0	0.0	0.0	492.0	-0.96	-0.041	
3.0	0.0	0.0	0.0	0.0	492.0	-0.964	-0.088	
4.0	0.0	0.0	0.0	0.0	493.0	-0.97	-0.064	
5.0	0.0	0.0	0.0	0.0	493.0	-0.976	0.422	
6.0	0.0	0.0	0.0	0.0	494.0	-0.98	1.427	
7.0	0.0	0.0	0.0	0.0	494.0	-0.993	1.494	
8.0	0.0	0.0	0.0	0.0	496.0	-0.999	0.844	
9.0	0.0	0.0	0.0	0.0	499.0	-1.009	-0.064	
10.0	0.0	0.0	0.0	0.0	500.0	-1.028	-0.451	
11.0	0.0	0.0	0.0	0.0	500.0	-1.044	-0.498	
12.0	0.0	0.0	0.0	0.0	500.0	-1.06	-0.492	
13.0	0.0	0.0	0.0	0.0	501.0	-1.07	-0.469	
14.0	0.0	0.0	0.0	0.0	502.0	-1.089	-0.428	
15.0	0.0	0.0	0.0	0.0	504.0	-1.109	-0.366	
0.0	0.0	0.0	0.0	0.0	506.0	-1.138	-0.305	
1.0	0.0	0.0	0.0	0.0	506.0	-1.167	-0.249	
2.0	0.0	0.0	0.0	0.0	506.0	-1.196	-0.199	
3.0	0.0	0.0	0.0	0.0	504.0	-1.221	-0.179	
4.0	0.0	0.0	0.0	0.0	502.0	-1.25	-0.135	
5.0	0.0	0.0	0.0	0.0	499.0	-1.276	-0.114	
6.0	0.0	0.0	0.0	0.0	497.0	-1.302	-0.07	
7.0	0.0	0.0	0.0	0.0	497.0	-1.328	-0.035	
8.0	0.0	0.0	0.0	0.0	495.0	-1.347	0.012	
9.0	0.0	0.0	0.0	0.0	494.0	-1.366	0.062	
10.0	0.0	0.0	0.0	0.0	492.0	-1.383	0.103	
11.0	0.0	0.0	0.0	0.0	492.0	-1.402	0.123	
12.0	0.0	0.0	0.0	0.0	492.0	-1.421	0.164	
13.0	0.0	0.0	0.0	0.0	492.0	-1.434	0.199	
14.0	0.0	0.0	0.0	0.0	491.0	-1.447	0.208	
15.0	0.0	0.0	0.0	0.0	493.0	-1.463	0.188	
0.0	0.0	0.0	0.0	0.0	495.0	-1.476	0.176	
1.0	0.0	0.0	0.0	0.0	498.0	-1.482	0.088	
2.0	0.0	0.0	0.0	0.0	497.0	-1.486	-0.05	
3.0	0.0	0.0	0.0	0.0	499.0	-1.489	-0.182	
4.0	0.0	0.0	0.0	0.0	501.0	-1.495	-0.278	
5.0	0.0	0.0	0.0	0.0	502.0	-1.499	-0.343	
6.0	0.0	0.0	0.0	0.0	505.0	-1.505	-0.369	
7.0	0.0	0.0	0.0	0.0	508.0	-1.515	-0.366	
8.0	0.0	0.0	0.0	0.0	510.0	-1.518	-0.337	
9.0	0.0	0.0	0.0	0.0	513.0	-1.518	-0.311	
10.0	0.0	0.0	0.0	0.0	516.0	-1.518	-0.293	
11.0	0.0	0.0	0.0	0.0	519.0	-1.518	-0.246	
12.0	0.0	0.0	0.0	0.0	519.0	-1.511	-0.22	
13.0	0.0	0.0	0.0	0.0	519.0	-1.502	-0.188	
14.0	0.0	0.0	0.0	0.0	519.0	-1.502	-0.179	
15.0	0.0	0.0	0.0	0.0	521.0	-1.486	-0.152	
0.0	0.0	0.0	0.0	0.0	521.0	-1.476	-0.123	
1.0	0.0	0.0	0.0	0.0	522.0	-1.466	-0.082	
2.0	0.0	0.0	0.0	0.0	523.0	-1.453	-0.062	
3.0	0.0	0.0	0.0	0.0	525.0	-1.447	-0.062	
4.0	0.0	0.0	0.0	0.0	526.0	-1.434	-0.032	
5.0	0.0	0.0	0.0	0.0	527.0	-1.421	-0.035	
6.0	0.0	0.0	0.0	0.0	528.0	-1.405	-0.018	
7.0	0.0	0.0	0.0	0.0	529.0	-1.399	-0.023	
8.0	0.0	0.0	0.0	0.0	528.0	-1.389	-0.021	
9.0	0.0	0.0	0.0	0.0	528.0	-1.383	-0.023	
10.0	0.0	0.0	0.0	0.0	529.0	-1.373	-0.023	
11.0	0.0	0.0	0.0	0.0	527.0	-1.373	-0.023	
12.0	0.0	0.0	0.0	0.0	526.0	-1.36	-0.009	
13.0	0.0	0.0	0.0	0.0	523.0	-1.354	-0.021	
14.0	0.0	0.0	0.0	0.0	521.0	-1.344	-0.012	
15.0	0.0	0.0	0.0	0.0	517.0	-1.334	0.018	
0.0	0.0	0.0	0.0	0.0	516.0	-1.334	-0.018	
1.0	0.0	0.0	0.0	0.0	516.0	-1.321	0.0	
2.0	0.0	0.0	0.0	0.0	515.0	-1.312	-0.003	
3.0	0.0	0.0	0.0	0.0	514.0	-1.305	0.0	
4.0	0.0	0.0	0.0	0.0	513.0	-1.299	0.015	
5.0	0.0	0.0	0.0	0.0	512.0	-1.289	0.021	
6.0	0.0	0.0	0.0	0.0	510.0	-1.279	0.0	
7.0	0.0	0.0	0.0	0.0	510.0	-1.276	-0.021	
8.0	0.0	0.0	0.0	0.0	508.0	-1.267	0.0	
9.0	0.0	0.0	0.0	0.0	511.0	-1.26	-0.006	
10.0	0.0	0.0	0.0	0.0	513.0	-1.25	-0.003	
11.0	0.0	0.0	0.0	0.0	514.0	-1.241	-0.026	
12.0	0.0	0.0	0.0	0.0	516.0	-1.228	0.041	
13.0	0.0	0.0	0.0	0.0	516.0	-1.212	-0.012	
14.0	0.0	0.0	0.0	0.0	518.0	-1.186	0.003	
15.0	0.0	0.0	0.0	0.0	520.0	-1.163	-0.003	
0.0	0.0	0.0	0.0	0.0	520.0	-1.134	-0.038	
1.0	0.0	0.0	0.0	0.0	519.0	-1.105	0.0	
2.0	0.0	0.0	0.0	0.0	519.0	-1.08	-0.05	
3.0	0.0	0.0	0.0	0.0	516.0	-1.057	-0.038	
4.0	0.0	0.0	0.0	0.0	515.0	-1.034	0.026	
5.0	0.0	0.0	0.0	0.0	513.0	-1.018	-0.003	
6.0	0.0	0.0	0.0	0.0	513.0	-1.002	-0.018	
7.0	0.0	0.0	0.0	0.0	509.0	-0.986	-0.009	
8.0	0.0	0.0	0.0	0.0	509.0	-0.973	-0.015	
9.0	0.0	0.0	0.0	0.0	507.0	-0.964	-0.018	
10.0	0.0	0.0	0.0	0.0	504.0	-0.947	-0.038	
11.0	0.0	0.0	0.0	0.0	502.0	-0.938	0.026	
12.0	0.0	0.0	0.0	0.0	501.0	-0.925	-0.003	
13.0	0.0	0.0	0.0	0.0	500.0	-0.912	0.029	
14.0	0.0	0.0	0.0	0.0	501.0	-0.902	0.021	
15.0	0.0	0.0	0.0	0.0	500.0	-0.889	0.015	
0.0	0.0	0.0	0.0	0.0	499.0	-0.883	0.05	
1.0	0.0	0.0	0.0	0.0	498.0	-0.877	-0.006	
2.0	0.0	0.0	0.0	0.0	497.0	-0.867	0.085	
3.0	0.0	0.0	0.0	0.0	498.0	-0.857	0.044	
4.0	0.0	0.0	0.0	0.0	498.0	-0.851	0.012	
5.0	0.0	0.0	0.0	0.0	498.0	-0.841	0.023	
6.0	0.0	0.0	0.0	0.0	499.0	-0.838	-0.035	
7.0	0.0	0.0	0.0	0.0	500.0	-0.835	-0.111	
8.0	0.0	0.0	0.0	0.0	502.0	-0.828	-0.032	
9.0	0.0	0.0	0.0	0.0	504.0	-0.822	-0.097	
10.0	0.0	0.0	0.0	0.0	504.0	-0.815	-0.067	
11.0	0.0	0.0	0.0	0.0	507.0	-0.806	0.425	
12.0	0.0	0.0	0.0	0.0	508.0	-0.799	1.427	
13.0	0.0	0.0	0.0	0.0	508.0	-0.786	1.494	
14.0	0.0	0.0	0.0	0.0	507.0	-0.78	0.756	
15.0	0.0	0.0	0.0	0.0	508.0	-0.773	-0.067	
0.0	0.0	0.0	0.0	0.0	506.0	-0.764	-0.451	
1.0	0.0	0.0	0.0	0.0	505.0	-0.754	-0.483	
2.0	0.0	0.0	0.0	0.0	503.0	-0.744	-0.469	
3.0	0.0	0.0	0.0	0.0	501.0	-0.732	-0.466	
4.0	0.0	0.0	0.0	0.0	500.0	-0.722	-0.41	
5.0	0.0	0.0	0.0	0.0	496.0	-0.715	-0.352	
6.0	0.0	0.0	0.0	0.0	494.0	-0.706	-0.299	
7.0	0.0	0.0	0.0	0.0	493.0	-0.703	-0.258	
8.0	0.0	0.0	0.0	0.0	494.0	-0.699	-0.255	
9.0	0.0	0.0	0.0	0.0	493.0	-0.693	-0.155	
10.0	0.0	0.0	0.0	0.0	494.0	-0.686	-0.103	
11.0	0.0	0.0	0.0	0.0	494.0	-0.683	-0.073	
12.0	0.0	0.0	0.0	0.0	495.0	-0.677	-0.073	
13.0	0.0	0.0	0.0	0.0	495.0	-0.674	0.009	
14.0	0.0	0.0	0.0	0.0	493.0	-0.67	0.035	
15.0	0.0	0.0	0.0	0.0	492.0	-0.67	0.062	
0.0	0.0	0.0	0.0	0.0	492.0	-0.674	0.073	
1.0	0.0	0.0	0.0	0.0	492.0	-0.683	0.193	
2.0	0.0	0.0	0.0	0.0	493.0	-0.69	0.226	
3.0	0.0	0.0	0.0	0.0	495.0	-0.699	0.261	
4.0	0.0	0.0	0.0	0.0	496.0	-0.703	0.293	
5.0	0.0	0.0	0.0	0.0	496.0	-0.709	0.237	
6.0	0.0	0.0	0.0	0.0	497.0	-0.712	0.188	
7.0	0.0	0.0	0.0	0.0	498.0	-0.715	0.193	
8.0	0.0	0.0	0.0	0.0	500.0	-0.722	0.053	
9.0	0.0	0.0	0.0	0.0	503.0	-0.725	-0.091	
10.0	0.0	0.0	0.0	0.0	504.0	-0.732	-0.208	
11.0	0.0	0.0	0.0	0.0	504.0	-0.735	-0.261	
12.0	0.0	0.0	0.0	0.0	506.0	-0.744	-0.29	
13.0	0.0	0.0	0.0	0.0	509.0	-0.748	-0.284	
14.0	0.0	0.0	0.0	0.0	508.0	-0.757	-0.246	
15.0	0.0	0.0	0.0	0.0	510.0	-0.764	-0.255	
0.0	0.0	0.0	0.0	0.0	511.0	-0.77	-0.199	
1.0	0.0	0.0	0.0	0.0	511.0	-0.78	-0.129	
2.0	0.0	0.0	0.0	0.0	510.0	-0.79	-0.111	
3.0	0.0	0.0	0.0	0.0	510.0	-0.799	-0.082	
4.0	0.0	0.0	0.0	0.0	510.0	-0.806	-0.067	
5.0	0.0	0.0	0.0	0.0	511.0	-0.812	-0.05	
6.0	0.0	0.0	0.0	0.0	513.0	-0.819	-0.044	
7.0	0.0	0.0	0.0	0.0	515.0	-0.822	-0.006	
8.0	0.0	0.0	0.0	0.0	515.0	-0.828	0.0	
9.0	0.0	0.0	0.0	0.0	516.0	-0.828	-0.006	
10.0	0.0	0.0	0.0	0.0	518.0	-0.831	0.018	
11.0	0.0	0.0	0.0	0.0	519.0	-0.841	0.056	
12.0	0.0	0.0	0.0	0.0	519.0	-0.848	0.032	
13.0	0.0	0.0	0.0	0.0	520.0	-0.851	0.021	
14.0	0.0	0.0	0.0	0.0	523.0	-0.864	0.012	
15.0	0.0	0.0	0.0	0.0	522.0	-0.87	0.003	
0.0	0.0	0.0	0.0	0.0	524.0	-0.877	0.018	
1.0	0.0	0.0	0.0	0.0	524.0	-0.889	0.021	
2.0	0.0	0.0	0.0	0.0	524.0	-0.899	0.012	
3.0	0.0	0.0	0.0	0.0	523.0	-0.906	0.023	
4.0	0.0	0.0	0.0	0.0	523.0	-0.918	0.018	
5.0	0.0	0.0	0.0	0.0	521.0	-0.928	0.0	
6.0	0.0	0.0	0.0	0.0	519.0	-0.938	0.012	
7.0	0.0	0.0	0.0	0.0	518.0	-0.951	0.015	
8.0	0.0	0.0	0.0	0.0	516.0	-0.957	0.018	
9.0	0.0	0.0	0.0	0.0	514.0	-0.964	0.003	
10.0	0.0	0.0	0.0	0.0	512.0	-0.967	0.009	
11.0	0.0	0.0	0.0	0.0	511.0	-0.976	0.015	
12.0	0.0	0.0	0.0	0.0	512.0	-0.98	0.009	
13.0	0.0	0.0	0.0	0.0	511.0	-0.98	-0.009	
14.0	0.0	0.0	0.0	0.0	512.0	-0.98	0.003	
15.0	0.0	0.0	0.0	0.0	512.0	-0.98	0.0	
0.0	0.0	0.0	0.0	0.0	512.0	-0.98	0.0	
1.0	0.0	0.0	0.0	0.0	512.0	-0.983	-0.021	
2.0	0.0	0.0	0.0	0.0	513.0	-0.976	-0.023	
3.0	0.0	0.0	0.0	0.0	512.0	-0.973	-0.038	
4.0	0.0	0.0	0.0	0.0	513.0	-0.967	-0.035	
5.0	0.0	0.0	0.0	0.0	513.0	-0.957	-0.021	
6.0	0.0	0.0	0.0	0.0	513.0	-0.944	-0.018	
7.0	0.0	0.0	0.0	0.0	513.0	-0.935	-0.018	
8.0	0.0	0.0	0.0	0.0	514.0	-0.925	-0.015	
9.0	0.0	0.0	0.0	0.0	514.0	-0.918	-0.018	
10.0	0.0	0.0	0.0	0.0	513.0	-0.906	-0.009	
11.0	0.0	0.0	0.0	0.0	512.0	-0.902	0.003	
12.0	0.0	0.0	0.0	0.0	513.0	-0.896	0.018	
13.0	0.0	0.0	0.0	0.0	512.0	-0.886	0.003	
14.0	0.0	0.0	0.0	0.0	509.0	-0.88	0.038	
15.0	0.0	0.0	0.0	0.0	505.0	-0.873	0.026	
0.0	0.0	0.0	0.0	0.0	503.0	-0.864	0.029	
1.0	0.0	0.0	0.0	0.0	501.0	-0.857	0.023	
2.0	0.0	0.0	0.0	0.0	499.0	-0.851	0.035	
3.0	0.0	0.0	0.0	0.0	499.0	-0.844	0.032	
4.0	0.0	0.0	0.0	0.0	499.0	-0.838	0.015	
5.0	0.0	0.0	0.0	0.0	500.0	-0.835	0.05	
6.0	0.0	0.0	0.0	0.0	498.0	-0.828	0.07	
7.0	0.0	0.0	0.0	0.0	496.0	-0.822	0.041	
8.0	0.0	0.0	0.0	0.0	495.0	-0.819	0.114	
9.0	0.0	0.0	0.0	0.0	497.0	-0.815	0.079	
10.0	0.0	0.0	0.0	0.0	499.0	-0.809	0.056	
11.0	0.0	0.0	0.0	0.0	501.0	-0.806	0.053	
12.0	0.0	0.0	0.0	0.0	502.0	-0.806	0.015	
13.0	0.0	0.0	0.0	0.0	503.0	-0.802	0.006	
14.0	0.0	0.0	0.0	0.0	503.0	-0.802	0.0	
15.0	0.0	0.0	0.0	0.0	502.0	-0.802	-0.094	
0.0	0.0	0.0	0.0	0.0	501.0	-0.799	0.073	
1.0	0.0	0.0	0.0	0.0	501.0	-0.796	0.814	
2.0	0.0	0.0	0.0	0.0	501.0	-0.79	1.494	
3.0	0.0	0.0	0.0	0.0	500.0	-0.783	1.491	
4.0	0.0	0.0	0.0	0.0	500.0	-0.777	0.396	
5.0	0.0	0.0	0.0	0.0	498.0	-0.777	-0.234	
6.0	0.0	0.0	0.0	0.0	497.0	-0.777	-0.486	
7.0	0.0	0.0	0.0	0.0	497.0	-0.773	-0.486	
8.0	0.0	0.0	0.0	0.0	499.0	-0.767	-0.492	
9.0	0.0	0.0	0.0	0.0	500.0	-0.761	-0.48	
10.0	0.0	0.0	0.0	0.0	499.0	-0.754	-0.431	
11.0	0.0	0.0	0.0	0.0	500.0	-0.748	-0.404	
12.0	0.0	0.0	0.0	0.0	499.0	-0.738	-0.308	
13.0	0.0	0.0	0.0	0.0	499.0	-0.728	-0.299	
14.0	0.0	0.0	0.0	0.0	499.0	-0.719	-0.284	
15.0	0.0	0.0	0.0	0.0	499.0	-0.703	-0.22	
0.0	0.0	0.0	0.0	0.0	497.0	-0.686	-0.17	
1.0	0.0	0.0	0.0	0.0	497.0	-0.67	-0.138	
2.0	0.0	0.0	0.0	0.0	496.0	-0.654	-0.091	
3.0	0.0	0.0	0.0	0.0	494.0	-0.641	0.006	
4.0	0.0	0.0	0.0	0.0	493.0	-0.632	0.103	
5.0	0.0	0.0	0.0	0.0	494.0	-0.625	0.108	
6.0	0.0	0.0	0.0	0.0	495.0	-0.622	0.176	
7.0	0.0	0.0	0.0	0.0	494.0	-0.619	0.211	
8.0	0.0	0.0	0.0	0.0	494.0	-0.616	0.255	
9.0	0.0	0.0	0.0	0.0	492.0	-0.609	0.258	
10.0	0.0	0.0	0.0	0.0	491.0	-0.609	0.255	
11.0	0.0	0.0	0.0	0.0	489.0	-0.603	0.255	
12.0	0.0	0.0	0.0	0.0	488.0	-0.596	0.226	
13.0	0.0	0.0	0.0	0.0	487.0	-0.59	0.152	
14.0	0.0	0.0	0.0	0.0	488.0	-0.58	0.018	
15.0	0.0	0.0	0.0	0.0	489.0	-0.57	-0.105	
0.0	0.0	0.0	0.0	0.0	492.0	-0.561	-0.217	
1.0	0.0	0.0	0.0	0.0	495.0	-0.554	-0.27	
2.0	0.0	0.0	0.0	0.0	501.0	-0.548	-0.305	
3.0	0.0	0.0	0.0	0.0	504.0	-0.541	-0.319	
4.0	0.0	0.0	0.0	0.0	508.0	-0.532	-0.305	
5.0	0.0	0.0	0.0	0.0	511.0	-0.525	-0.272	
6.0	0.0	0.0	0.0	0.0	513.0	-0.519	-0.272	
7.0	0.0	0.0	0.0	0.0	513.0	-0.516	-0.217	
8.0	0.0	0.0	0.0	0.0	514.0	-0.509	-0.182	
9.0	0.0	0.0	0.0	0.0	515.0	-0.5	-0.176	
10.0	0.0	0.0	0.0	0.0	515.0	-0.493	-0.155	
11.0	0.0	0.0	0.0	0.0	516.0	-0.483	-0.126	
12.0	0.0	0.0	0.0	0.0	515.0	-0.474	-0.097	
13.0	0.0	0.0	0.0	0.0	514.0	-0.464	-0.076	
14.0	0.0	0.0	0.0	0.0	515.0	-0.451	-0.059	
15.0	0.0	0.0	0.0	0.0	515.0	-0.442	-0.038	
0.0	0.0	0.0	0.0	0.0	515.0	-0.432	0.003	
1.0	0.0	0.0	0.0	0.0	515.0	-0.425	0.012	
2.0	0.0	0.0	0.0	0.0	515.0	-0.416	0.003	
3.0	0.0	0.0	0.0	0.0	514.0	-0.409	0.003	
4.0	0.0	0.0	0.0	0.0	513.0	-0.403	0.018	
5.0	0.0	0.0	0.0	0.0	512.0	-0.393	0.006	
6.0	0.0	0.0	0.0	0.0	512.0	-0.387	-0.047	
7.0	0.0	0.0	0.0	0.0	511.0	-0.377	-0.038	
8.0	0.0	0.0	0.0	0.0	510.0	-0.374	-0.015	
9.0	0.0	0.0	0.0	0.0	510.0	-0.364	0.0	
10.0	0.0	0.0	0.0	0.0	510.0	-0.358	-0.006	
11.0	0.0	0.0	0.0	0.0	508.0	-0.351	-0.015	
12.0	0.0	0.0	0.0	0.0	507.0	-0.342	-0.023	
13.0	0.0	0.0	0.0	0.0	505.0	-0.332	-0.038	
14.0	0.0	0.0	0.0	0.0	505.0	-0.322	-0.035	
15.0	0.0	0.0	0.0	0.0	503.0	-0.313	-0.026	
0.0	0.0	0.0	0.0	0.0	500.0	-0.3	-0.041	
1.0	0.0	0.0	0.0	0.0	498.0	-0.287	-0.023	
2.0	0.0	0.0	0.0	0.0	495.0	-0.277	-0.035	
3.0	0.0	0.0	0.0	0.0	492.0	-0.271	-0.05	
4.0	0.0	0.0	0.0	0.0	487.0	-0.264	-0.076	
5.0	0.0	0.0	0.0	0.0	481.0	-0.261	-0.018	
6.0	0.0	0.0	0.0	0.0	478.0	-0.258	-0.038	
7.0	0.0	0.0	0.0	0.0	472.0	-0.255	-0.07	
8.0	0.0	0.0	0.0	0.0	465.0	-0.255	-0.062	
9.0	0.0	0.0	0.0	0.0	460.0	-0.255	-0.07	
10.0	0.0	0.0	0.0	0.0	454.0	-0.248	-0.064	
11.0	0.0	0.0	0.0	0.0	448.0	-0.245	-0.059	
12.0	0.0	0.0	0.0	0.0	444.0	-0.238	-0.129	
13.0	0.0	0.0	0.0	0.0	441.0	-0.229	-0.144	
14.0	0.0	0.0	0.0	0.0	440.0	-0.219	-0.091	
15.0	0.0	0.0	0.0	0.0	438.0	-0.206	-0.108	
0.0	0.0	0.0	0.0	0.0	437.0	-0.19	-0.117	
1.0	0.0	0.0	0.0	0.0	438.0	-0.168	-0.17	
2.0	0.0	0.0	0.0	0.0	441.0	-0.135	-0.111	
3.0	0.0	0.0	0.0	0.0	445.0	-0.09	-0.129	
4.0	0.0	0.0	0.0	0.0	450.0	-0.042	-0.12	
5.0	0.0	0.0	0.0	0.0	456.0	0.01	-0.211	
6.0	0.0	0.0	0.0	0.0	464.0	0.071	-0.185	
7.0	0.0	0.0	0.0	0.0	471.0	0.129	-0.12	
8.0	0.0	0.0	0.0	0.0	476.0	0.197	-0.062	
9.0	0.0	0.0	0.0	0.0	482.0	0.261	-0.012	
10.0	0.0	0.0	0.0	0.0	487.0	0.332	0.026	
11.0	0.0	0.0	0.0	0.0	489.0	0.403	0.003	
12.0	0.0	0.0	0.0	0.0	492.0	0.471	0.07	
13.0	0.0	0.0	0.0	0.0	494.0	0.538	0.041	
14.0	0.0	0.0	0.0	0.0	494.0	0.606	0.006	
15.0	0.0	0.0	0.0	0.0	493.0	0.664	-0.018	
0.0	0.0	0.0	0.0	0.0	494.0	0.722	0.015	
1.0	0.0	0.0	0.0	0.0	492.0	0.773	0.021	
2.0	0.0	0.0	0.0	0.0	490.0	0.822	-0.029	
3.0	0.0	0.0	0.0	0.0	489.0	0.867	0.264	
4.0	0.0	0.0	0.0	0.0	487.0	0.912	1.151	
5.0	0.0	0.0	0.0	0.0	487.0	0.954	1.497	
6.0	0.0	0.0	0.0	0.0	487.0	0.996	1.368	
7.0	0.0	0.0	0.0	0.0	487.0	1.034	0.384	
8.0	0.0	0.0	0.0	0.0	485.0	1.067	-0.1	
9.0	0.0	0.0	0.0	0.0	485.0	1.096	-0.311	
10.0	0.0	0.0	0.0	0.0	488.0	1.125	-0.331	
11.0	0.0	0.0	0.0	0.0	496.0	1.147	-0.27	
12.0	0.0	0.0	0.0	0.0	504.0	1.173	-0.234	
13.0	0.0	0.0	0.0	0.0	512.0	1.192	-0.226	
14.0	0.0	0.0	0.0	0.0	521.0	1.212	-0.226	
15.0	0.0	0.0	0.0	0.0	528.0	1.228	-0.152	
0.0	0.0	0.0	0.0	0.0	532.0	1.237	-0.079	
1.0	0.0	0.0	0.0	0.0	532.0	1.247	-0.018	
2.0	0.0	0.0	0.0	0.0	530.0	1.254	0.012	
3.0	0.0	0.0	0.0	0.0	526.0	1.254	0.012	
4.0	0.0	0.0	0.0	0.0	523.0	1.257	0.023	
5.0	0.0	0.0	0.0	0.0	518.0	1.25	0.053	
6.0	0.0	0.0	0.0	0.0	515.0	1.247	0.1	
7.0	0.0	0.0	0.0	0.0	510.0	1.231	0.164	
8.0	0.0	0.0	0.0	0.0	505.0	1.218	0.176	
9.0	0.0	0.0	0.0	0.0	502.0	1.196	0.199	
10.0	0.0	0.0	0.0	0.0	501.0	1.17	0.275	
11.0	0.0	0.0	0.0	0.0	497.0	1.144	0.328	
12.0	0.0	0.0	0.0	0.0	496.0	1.115	0.296	
13.0	0.0	0.0	0.0	0.0	494.0	1.086	0.275	
14.0	0.0	0.0	0.0	0.0	496.0	1.06	0.272	
15.0	0.0	0.0	0.0	0.0	496.0	1.031	0.202	
0.0	0.0	0.0	0.0	0.0	497.0	1.005	0.135	
1.0	0.0	0.0	0.0	0.0	496.0	0.976	-0.015	
2.0	0.0	0.0	0.0	0.0	494.0	0.947	-0.146	
3.0	0.0	0.0	0.0	0.0	494.0	0.918	-0.27	
4.0	0.0	0.0	0.0	0.0	494.0	0.889	-0.287	
5.0	0.0	0.0	0.0	0.0	494.0	0.86	-0.296	
6.0	0.0	0.0	0.0	0.0	497.0	0.831	-0.264	
7.0	0.0	0.0	0.0	0.0	499.0	0.802	-0.278	
8.0	0.0	0.0	0.0	0.0	498.0	0.773	-0.252	
9.0	0.0	0.0	0.0	0.0	499.0	0.744	-0.185	
10.0	0.0	0.0	0.0	0.0	501.0	0.719	-0.185	
11.0	0.0	0.0	0.0	0.0	504.0	0.69	-0.149	
12.0	0.0	0.0	0.0	0.0	506.0	0.664	-0.091	
13.0	0.0	0.0	0.0	0.0	510.0	0.635	-0.079	
14.0	0.0	0.0	0.0	0.0	511.0	0.616	-0.073	
15.0	0.0	0.0	0.0	0.0	513.0	0.593	-0.044	
0.0	0.0	0.0	0.0	0.0	511.0	0.577	-0.082	
1.0	0.0	0.0	0.0	0.0	510.0	0.554	-0.05	
2.0	0.0	0.0	0.0	0.0	511.0	0.538	-0.026	
3.0	0.0	0.0	0.0	0.0	513.0	0.522	-0.006	
4.0	0.0	0.0	0.0	0.0	514.0	0.503	-0.015	
5.0	0.0	0.0	0.0	0.0	515.0	0.483	0.0	
6.0	0.0	0.0	0.0	0.0	516.0	0.467	-0.018	
7.0	0.0	0.0	0.0	0.0	516.0	0.448	0.026	
8.0	0.0	0.0	0.0	0.0	515.0	0.432	-0.023	
9.0	0.0	0.0	0.0	0.0	513.0	0.413	0.018	
10.0	0.0	0.0	0.0	0.0	513.0	0.396	-0.012	
11.0	0.0	0.0	0.0	0.0	512.0	0.38	0.006	
12.0	0.0	0.0	0.0	0.0	509.0	0.364	0.012	
13.0	0.0	0.0	0.0	0.0	508.0	0.348	0.018	
14.0	0.0	0.0	0.0	0.0	505.0	0.335	0.035	
15.0	0.0	0.0	0.0	0.0	504.0	0.322	-0.006	
0.0	0.0	0.0	0.0	0.0	502.0	0.313	-0.018	
1.0	0.0	0.0	0.0	0.0	500.0	0.303	0.018	
2.0	0.0	0.0	0.0	0.0	500.0	0.293	-0.023	
3.0	0.0	0.0	0.0	0.0	500.0	0.284	-0.032	
4.0	0.0	0.0	0.0	0.0	499.0	0.271	-0.009	
5.0	0.0	0.0	0.0	0.0	499.0	0.261	-0.015	
6.0	0.0	0.0	0.0	0.0	497.0	0.251	-0.018	
7.0	0.0	0.0	0.0	0.0	496.0	0.242	-0.015	
8.0	0.0	0.0	0.0	0.0	494.0	0.232	0.015	
9.0	0.0	0.0	0.0	0.0	492.0	0.222	0.015	
10.0	0.0	0.0	0.0	0.0	492.0	0.213	0.012	
11.0	0.0	0.0	0.0	0.0	491.0	0.203	0.029	
12.0	0.0	0.0	0.0	0.0	490.0	0.193	0.006	
13.0	0.0	0.0	0.0	0.0	489.0	0.184	-0.021	
14.0	0.0	0.0	0.0	0.0	489.0	0.177	-0.012	
15.0	0.0	0.0	0.0	0.0	489.0	0.171	-0.012	
0.0	0.0	0.0	0.0	0.0	489.0	0.164	-0.003	
1.0	0.0	0.0	0.0	0.0	492.0	0.158	0.003	
2.0	0.0	0.0	0.0	0.0	493.0	0.151	0.003	
3.0	0.0	0.0	0.0	0.0	495.0	0.145	-0.021	
4.0	0.0	0.0	0.0	0.0	496.0	0.139	0.0	
5.0	0.0	0.0	0.0	0.0	496.0	0.132	-0.009	
6.0	0.0	0.0	0.0	0.0	496.0	0.129	-0.035	
7.0	0.0	0.0	0.0	0.0	495.0	0.126	-0.023	
8.0	0.0	0.0	0.0	0.0	494.0	0.122	-0.044	
9.0	0.0	0.0	0.0	0.0	494.0	0.116	-0.044	
10.0	0.0	0.0	0.0	0.0	495.0	0.113	-0.006	
11.0	0.0	0.0	0.0	0.0	494.0	0.106	0.041	
12.0	0.0	0.0	0.0	0.0	493.0	0.103	0.05	
13.0	0.0	0.0	0.0	0.0	493.0	0.1	0.044	
14.0	0.0	0.0	0.0	0.0	493.0	0.097	0.091	
15.0	0.0	0.0	0.0	0.0	492.0	0.093	0.006	
0.0	0.0	0.0	0.0	0.0	494.0	0.09	0.006	
1.0	0.0	0.0	0.0	0.0	492.0	0.09	-0.012	
2.0	0.0	0.0	0.0	0.0	491.0	0.087	0.0	
3.0	0.0	0.0	0.0	0.0	488.0	0.087	-0.018	
4.0	0.0	0.0	0.0	0.0	486.0	0.084	0.012	
5.0	0.0	0.0	0.0	0.0	485.0	0.081	-0.021	
6.0	0.0	0.0	0.0	0.0	484.0	0.077	0.352	
7.0	0.0	0.0	0.0	0.0	481.0	0.074	1.321	
8.0	0.0	0.0	0.0	0.0	480.0	0.071	1.494	
9.0	0.0	0.0	0.0	0.0	477.0	0.064	1.102	
10.0	0.0	0.0	0.0	0.0	477.0	0.055	0.126	
11.0	0.0	0.0	0.0	0.0	479.0	0.045	-0.305	
12.0	0.0	0.0	0.0	0.0	481.0	0.035	-0.428	
13.0	0.0	0.0	0.0	0.0	484.0	0.029	-0.407	
14.0	0.0	0.0	0.0	0.0	486.0	0.023	-0.398	
15.0	0.0	0.0	0.0	0.0	488.0	0.019	-0.378	
0.0	0.0	0.0	0.0	0.0	491.0	0.01	-0.369	
1.0	0.0	0.0	0.0	0.0	494.0	0.003	-0.352	
2.0	0.0	0.0	0.0	0.0	498.0	-0.006	-0.267	
3.0	0.0	0.0	0.0	0.0	501.0	-0.019	-0.255	
4.0	0.0	0.0	0.0	0.0	501.0	-0.029	-0.188	
5.0	0.0	0.0	0.0	0.0	503.0	-0.048	-0.164	
6.0	0.0	0.0	0.0	0.0	508.0	-0.064	-0.12	
7.0	0.0	0.0	0.0	0.0	510.0	-0.087	-0.023	
8.0	0.0	0.0	0.0	0.0	510.0	-0.116	0.015	
9.0	0.0	0.0	0.0	0.0	511.0	-0.151	0.032	
10.0	0.0	0.0	0.0	0.0	513.0	-0.187	0.067	
11.0	0.0	0.0	0.0	0.0	514.0	-0.229	0.129	
12.0	0.0	0.0	0.0	0.0	513.0	-0.271	0.146	
13.0	0.0	0.0	0.0	0.0	515.0	-0.316	0.123	
14.0	0.0	0.0	0.0	0.0	514.0	-0.354	0.094	
15.0	0.0	0.0	0.0	0.0	515.0	-0.393	0.07	
0.0	0.0	0.0	0.0	0.0	514.0	-0.429	0.079	
1.0	0.0	0.0	0.0	0.0	513.0	-0.461	0.082	
2.0	0.0	0.0	0.0	0.0	513.0	-0.487	0.07	
3.0	0.0	0.0	0.0	0.0	513.0	-0.506	0.012	
4.0	0.0	0.0	0.0	0.0	509.0	-0.529	-0.085	
5.0	0.0	0.0	0.0	0.0	505.0	-0.545	-0.237	
6.0	0.0	0.0	0.0	0.0	503.0	-0.558	-0.366	
7.0	0.0	0.0	0.0	0.0	500.0	-0.567	-0.404	
8.0	0.0	0.0	0.0	0.0	500.0	-0.577	-0.404	
9.0	0.0	0.0	0.0	0.0	500.0	-0.58	-0.39	
10.0	0.0	0.0	0.0	0.0	501.0	-0.587	-0.319	
11.0	0.0	0.0	0.0	0.0	503.0	-0.593	-0.211	
12.0	0.0	0.0	0.0	0.0	505.0	-0.596	-0.149	
13.0	0.0	0.0	0.0	0.0	507.0	-0.596	-0.094	
14.0	0.0	0.0	0.0	0.0	508.0	-0.606	-0.123	
15.0	0.0	0.0	0.0	0.0	508.0	-0.609	-0.138	
0.0	0.0	0.0	0.0	0.0	508.0	-0.616	-0.126	
1.0	0.0	0.0	0.0	0.0	508.0	-0.622	-0.1	
2.0	0.0	0.0	0.0	0.0	508.0	-0.628	-0.053	
3.0	0.0	0.0	0.0	0.0	508.0	-0.638	-0.05	
4.0	0.0	0.0	0.0	0.0	507.0	-0.645	-0.056	
5.0	0.0	0.0	0.0	0.0	506.0	-0.651	-0.044	
6.0	0.0	0.0	0.0	0.0	507.0	-0.661	-0.044	
7.0	0.0	0.0	0.0	0.0	508.0	-0.664	-0.012	
8.0	0.0	0.0	0.0	0.0	510.0	-0.67	-0.029	
9.0	0.0	0.0	0.0	0.0	511.0	-0.677	-0.044	
10.0	0.0	0.0	0.0	0.0	512.0	-0.683	-0.053	
11.0	0.0	0.0	0.0	0.0	512.0	-0.696	-0.029	
12.0	0.0	0.0	0.0	0.0	513.0	-0.706	-0.035	
13.0	0.0	0.0	0.0	0.0	517.0	-0.719	-0.053	
14.0	0.0	0.0	0.0	0.0	521.0	-0.732	-0.053	
15.0	0.0	0.0	0.0	0.0	524.0	-0.741	-0.059	
0.0	0.0	0.0	0.0	0.0	525.0	-0.751	-0.056	
1.0	0.0	0.0	0.0	0.0	525.0	-0.757	-0.035	
2.0	0.0	0.0	0.0	0.0	528.0	-0.757	-0.041	
3.0	0.0	0.0	0.0	0.0	527.0	-0.761	-0.026	
4.0	0.0	0.0	0.0	0.0	524.0	-0.757	-0.023	
5.0	0.0	0.0	0.0	0.0	519.0	-0.761	0.0	
6.0	0.0	0.0	0.0	0.0	516.0	-0.757	-0.003	
7.0	0.0	0.0	0.0	0.0	513.0	-0.757	0.006	
8.0	0.0	0.0	0.0	0.0	511.0	-0.761	0.029	
9.0	0.0	0.0	0.0	0.0	510.0	-0.757	0.026	
10.0	0.0	0.0	0.0	0.0	508.0	-0.761	-0.009	
11.0	0.0	0.0	0.0	0.0	505.0	-0.757	0.021	
12.0	0.0	0.0	0.0	0.0	502.0	-0.754	0.006	
13.0	0.0	0.0	0.0	0.0	499.0	-0.751	-0.023	
14.0	0.0	0.0	0.0	0.0	496.0	-0.744	0.0	
15.0	0.0	0.0	0.0	0.0	497.0	-0.738	0.006	
0.0	0.0	0.0	0.0	0.0	497.0	-0.735	-0.006	
1.0	0.0	0.0	0.0	0.0	499.0	-0.725	-0.012	
2.0	0.0	0.0	0.0	0.0	500.0	-0.715	0.009	
3.0	0.0	0.0	0.0	0.0	500.0	-0.709	-0.012	
4.0	0.0	0.0	0.0	0.0	499.0	-0.696	-0.018	
5.0	0.0	0.0	0.0	0.0	497.0	-0.683	-0.012	
6.0	0.0	0.0	0.0	0.0	495.0	-0.674	0.0	
7.0	0.0	0.0	0.0	0.0	494.0	-0.661	0.012	
8.0	0.0	0.0	0.0	0.0	493.0	-0.648	-0.006	
9.0	0.0	0.0	0.0	0.0	493.0	-0.635	-0.067	
10.0	0.0	0.0	0.0	0.0	496.0	-0.622	0.015	
11.0	0.0	0.0	0.0	0.0	495.0	-0.609	0.035	
12.0	0.0	0.0	0.0	0.0	496.0	-0.596	0.009	
13.0	0.0	0.0	0.0	0.0	497.0	-0.583	0.085	
14.0	0.0	0.0	0.0	0.0	497.0	-0.567	0.035	
15.0	0.0	0.0	0.0	0.0	498.0	-0.558	0.021	
0.0	0.0	0.0	0.0	0.0	500.0	-0.541	0.003	
1.0	0.0	0.0	0.0	0.0	500.0	-0.529	-0.012	
2.0	0.0	0.0	0.0	0.0	501.0	-0.516	-0.044	
3.0	0.0	0.0	0.0	0.0	499.0	-0.503	-0.003	
4.0	0.0	0.0	0.0	0.0	496.0	-0.493	-0.105	
5.0	0.0	0.0	0.0	0.0	494.0	-0.48	0.05	
6.0	0.0	0.0	0.0	0.0	491.0	-0.471	0.809	
7.0	0.0	0.0	0.0	0.0	487.0	-0.461	1.494	
8.0	0.0	0.0	0.0	0.0	483.0	-0.448	1.365	
9.0	0.0	0.0	0.0	0.0	479.0	-0.438	0.431	
10.0	0.0	0.0	0.0	0.0	474.0	-0.432	-0.19	
11.0	0.0	0.0	0.0	0.0	468.0	-0.425	-0.437	
12.0	0.0	0.0	0.0	0.0	465.0	-0.422	-0.448	
13.0	0.0	0.0	0.0	0.0	463.0	-0.413	-0.393	
14.0	0.0	0.0	0.0	0.0	461.0	-0.409	-0.366	
15.0	0.0	0.0	0.0	0.0	455.0	-0.403	-0.319	
0.0	0.0	0.0	0.0	0.0	448.0	-0.393	-0.252	
1.0	0.0	0.0	0.0	0.0	443.0	-0.383	-0.19	
2.0	0.0	0.0	0.0	0.0	437.0	-0.374	-0.164	
3.0	0.0	0.0	0.0	0.0	431.0	-0.374	-0.114	
4.0	0.0	0.0	0.0	0.0	426.0	-0.371	-0.085	
5.0	0.0	0.0	0.0	0.0	424.0	-0.367	-0.059	
6.0	0.0	0.0	0.0	0.0	421.0	-0.364	-0.023	
7.0	0.0	0.0	0.0	0.0	420.0	-0.364	-0.003	
8.0	0.0	0.0	0.0	0.0	420.0	-0.364	0.035	
9.0	0.0	0.0	0.0	0.0	421.0	-0.364	0.073	
10.0	0.0	0.0	0.0	0.0	423.0	-0.361	0.088	
11.0	0.0	0.0	0.0	0.0	429.0	-0.364	0.144	
12.0	0.0	0.0	0.0	0.0	436.0	-0.364	0.176	
13.0	0.0	0.0	0.0	0.0	445.0	-0.367	0.246	
14.0	0.0	0.0	0.0	0.0	454.0	-0.367	0.258	
15.0	0.0	0.0	0.0	0.0	465.0	-0.371	0.264	
0.0	0.0	0.0	0.0	0.0	475.0	-0.371	0.275	
1.0	0.0	0.0	0.0	0.0	485.0	-0.367	0.234	
2.0	0.0	0.0	0.0	0.0	493.0	-0.364	0.103	
3.0	0.0	0.0	0.0	0.0	499.0	-0.361	-0.021	
4.0	0.0	0.0	0.0	0.0	503.0	-0.358	-0.173	
5.0	0.0	0.0	0.0	0.0	504.0	-0.354	-0.249	
6.0	0.0	0.0	0.0	0.0	502.0	-0.354	-0.311	
7.0	0.0	0.0	0.0	0.0	499.0	-0.351	-0.331	
8.0	0.0	0.0	0.0	0.0	495.0	-0.351	-0.325	
9.0	0.0	0.0	0.0	0.0	490.0	-0.354	-0.267	
10.0	0.0	0.0	0.0	0.0	486.0	-0.358	-0.246	
11.0	0.0	0.0	0.0	0.0	483.0	-0.361	-0.229	
12.0	0.0	0.0	0.0	0.0	482.0	-0.367	-0.193	
13.0	0.0	0.0	0.0	0.0	481.0	-0.374	-0.152	
14.0	0.0	0.0	0.0	0.0	482.0	-0.377	-0.144	
15.0	0.0	0.0	0.0	0.0	481.0	-0.383	-0.082	
0.0	0.0	0.0	0.0	0.0	483.0	-0.39	-0.059	
1.0	0.0	0.0	0.0	0.0	484.0	-0.393	-0.041	
2.0	0.0	0.0	0.0	0.0	488.0	-0.396	-0.035	
3.0	0.0	0.0	0.0	0.0	494.0	-0.393	-0.009	
4.0	0.0	0.0	0.0	0.0	498.0	-0.393	0.006	
5.0	0.0	0.0	0.0	0.0	504.0	-0.383	-0.032	
6.0	0.0	0.0	0.0	0.0	508.0	-0.367	0.012	
7.0	0.0	0.0	0.0	0.0	510.0	-0.345	-0.015	
8.0	0.0	0.0	0.0	0.0	512.0	-0.322	-0.018	
9.0	0.0	0.0	0.0	0.0	513.0	-0.3	-0.012	
10.0	0.0	0.0	0.0	0.0	515.0	-0.274	-0.018	
11.0	0.0	0.0	0.0	0.0	517.0	-0.251	-0.012	
12.0	0.0	0.0	0.0	0.0	517.0	-0.232	0.009	
13.0	0.0	0.0	0.0	0.0	517.0	-0.213	-0.003	
14.0	0.0	0.0	0.0	0.0	514.0	-0.193	0.006	
15.0	0.0	0.0	0.0	0.0	510.0	-0.177	-0.023	
0.0	0.0	0.0	0.0	0.0	504.0	-0.158	-0.009	
1.0	0.0	0.0	0.0	0.0	498.0	-0.145	-0.026	
2.0	0.0	0.0	0.0	0.0	492.0	-0.132	-0.021	
3.0	0.0	0.0	0.0	0.0	488.0	-0.113	-0.062	
4.0	0.0	0.0	0.0	0.0	484.0	-0.097	-0.015	
5.0	0.0	0.0	0.0	0.0	480.0	-0.077	0.0	
6.0	0.0	0.0	0.0	0.0	474.0	-0.055	-0.003	
7.0	0.0	0.0	0.0	0.0	472.0	-0.032	0.003	
8.0	0.0	0.0	0.0	0.0	472.0	-0.01	0.006	
9.0	0.0	0.0	0.0	0.0	472.0	0.013	0.003	
10.0	0.0	0.0	0.0	0.0	475.0	0.039	0.044	
11.0	0.0	0.0	0.0	0.0	478.0	0.061	0.026	
12.0	0.0	0.0	0.0	0.0	483.0	0.084	0.009	
13.0	0.0	0.0	0.0	0.0	489.0	0.106	0.032	
14.0	0.0	0.0	0.0	0.0	496.0	0.129	0.032	
15.0	0.0	0.0	0.0	0.0	500.0	0.151	-0.003	
0.0	0.0	0.0	0.0	0.0	506.0	0.174	0.032	
1.0	0.0	0.0	0.0	0.0	510.0	0.193	0.035	
2.0	0.0	0.0	0.0	0.0	514.0	0.216	0.059	
3.0	0.0	0.0	0.0	0.0	515.0	0.235	0.05	
4.0	0.0	0.0	0.0	0.0	515.0	0.258	0.0	
5.0	0.0	0.0	0.0	0.0	515.0	0.277	0.053	
6.0	0.0	0.0	0.0	0.0	512.0	0.296	0.012	
7.0	0.0	0.0	0.0	0.0	511.0	0.319	0.044	
8.0	0.0	0.0	0.0	0.0	512.0	0.335	0.062	
9.0	0.0	0.0	0.0	0.0	512.0	0.354	0.018	
10.0	0.0	0.0	0.0	0.0	513.0	0.371	0.111	
11.0	0.0	0.0	0.0	0.0	515.0	0.39	0.091	
12.0	0.0	0.0	0.0	0.0	516.0	0.406	0.082	
13.0	0.0	0.0	0.0	0.0	518.0	0.419	0.047	
14.0	0.0	0.0	0.0	0.0	518.0	0.435	0.023	
15.0	0.0	0.0	0.0	0.0	515.0	0.448	0.015	
0.0	0.0	0.0	0.0	0.0	511.0	0.461	-0.047	
1.0	0.0	0.0	0.0	0.0	510.0	0.471	-0.1	
2.0	0.0	0.0	0.0	0.0	508.0	0.483	0.214	
3.0	0.0	0.0	0.0	0.0	505.0	0.493	1.134	
4.0	0.0	0.0	0.0	0.0	504.0	0.503	1.494	
5.0	0.0	0.0	0.0	0.0	502.0	0.512	1.28	
6.0	0.0	0.0	0.0	0.0	501.0	0.516	0.161	
7.0	0.0	0.0	0.0	0.0	501.0	0.519	-0.337	
8.0	0.0	0.0	0.0	0.0	502.0	0.516	-0.457	
9.0	0.0	0.0	0.0	0.0	502.0	0.519	-0.469	
10.0	0.0	0.0	0.0	0.0	501.0	0.522	-0.46	
11.0	0.0	0.0	0.0	0.0	502.0	0.525	-0.442	
12.0	0.0	0.0	0.0	0.0	504.0	0.525	-0.36	
13.0	0.0	0.0	0.0	0.0	507.0	0.525	-0.305	
14.0	0.0	0.0	0.0	0.0	510.0	0.519	-0.258	
15.0	0.0	0.0	0.0	0.0	512.0	0.512	-0.223	
0.0	0.0	0.0	0.0	0.0	513.0	0.503	-0.164	
1.0	0.0	0.0	0.0	0.0	513.0	0.493	-0.149	
2.0	0.0	0.0	0.0	0.0	513.0	0.483	-0.056	
3.0	0.0	0.0	0.0	0.0	513.0	0.467	-0.059	
4.0	0.0	0.0	0.0	0.0	513.0	0.458	-0.029	
5.0	0.0	0.0	0.0	0.0	512.0	0.445	0.026	
6.0	0.0	0.0	0.0	0.0	511.0	0.425	0.073	
7.0	0.0	0.0	0.0	0.0	510.0	0.409	0.091	
8.0	0.0	0.0	0.0	0.0	508.0	0.387	0.155	
9.0	0.0	0.0	0.0	0.0	507.0	0.367	0.188	
10.0	0.0	0.0	0.0	0.0	505.0	0.345	0.188	
11.0	0.0	0.0	0.0	0.0	505.0	0.325	0.205	
12.0	0.0	0.0	0.0	0.0	504.0	0.309	0.214	
13.0	0.0	0.0	0.0	0.0	504.0	0.296	0.176	
14.0	0.0	0.0	0.0	0.0	504.0	0.287	0.114	
15.0	0.0	0.0	0.0	0.0	507.0	0.28	0.023	
0.0	0.0	0.0	0.0	0.0	507.0	0.277	-0.076	
1.0	0.0	0.0	0.0	0.0	508.0	0.271	-0.182	
2.0	0.0	0.0	0.0	0.0	509.0	0.264	-0.272	
3.0	0.0	0.0	0.0	0.0	509.0	0.258	-0.275	
4.0	0.0	0.0	0.0	0.0	511.0	0.245	-0.261	
5.0	0.0	0.0	0.0	0.0	513.0	0.229	-0.264	
6.0	0.0	0.0	0.0	0.0	516.0	0.213	-0.264	
7.0	0.0	0.0	0.0	0.0	517.0	0.193	-0.223	
8.0	0.0	0.0	0.0	0.0	519.0	0.168	-0.179	
9.0	0.0	0.0	0.0	0.0	522.0	0.148	-0.158	
10.0	0.0	0.0	0.0	0.0	527.0	0.129	-0.132	
11.0	0.0	0.0	0.0	0.0	530.0	0.11	-0.135	
12.0	0.0	0.0	0.0	0.0	535.0	0.097	-0.117	
13.0	0.0	0.0	0.0	0.0	540.0	0.084	-0.082	
14.0	0.0	0.0	0.0	0.0	542.0	0.077	-0.094	
15.0	0.0	0.0	0.0	0.0	542.0	0.068	-0.067	
0.0	0.0	0.0	0.0	0.0	542.0	0.061	-0.029	
1.0	0.0	0.0	0.0	0.0	541.0	0.052	-0.012	
2.0	0.0	0.0	0.0	0.0	540.0	0.042	0.023	
3.0	0.0	0.0	0.0	0.0	538.0	0.029	0.044	
4.0	0.0	0.0	0.0	0.0	536.0	0.019	0.032	
5.0	0.0	0.0	0.0	0.0	534.0	0.003	0.023	
6.0	0.0	0.0	0.0	0.0	532.0	-0.013	0.003	
7.0	0.0	0.0	0.0	0.0	530.0	-0.026	-0.003	
8.0	0.0	0.0	0.0	0.0	527.0	-0.042	0.0	
9.0	0.0	0.0	0.0	0.0	524.0	-0.058	-0.006	
10.0	0.0	0.0	0.0	0.0	523.0	-0.074	0.026	
11.0	0.0	0.0	0.0	0.0	519.0	-0.09	0.0	
12.0	0.0	0.0	0.0	0.0	517.0	-0.106	-0.003	
13.0	0.0	0.0	0.0	0.0	515.0	-0.122	-0.003	
14.0	0.0	0.0	0.0	0.0	515.0	-0.139	-0.015	
15.0	0.0	0.0	0.0	0.0	514.0	-0.155	-0.012	
0.0	0.0	0.0	0.0	0.0	513.0	-0.171	-0.003	
1.0	0.0	0.0	0.0	0.0	515.0	-0.187	-0.023	
2.0	0.0	0.0	0.0	0.0	515.0	-0.203	-0.053	
3.0	0.0	0.0	0.0	0.0	514.0	-0.219	-0.044	
4.0	0.0	0.0	0.0	0.0	512.0	-0.232	-0.062	
5.0	0.0	0.0	0.0	0.0	511.0	-0.248	-0.053	
6.0	0.0	0.0	0.0	0.0	507.0	-0.264	-0.053	
7.0	0.0	0.0	0.0	0.0	503.0	-0.277	-0.067	
8.0	0.0	0.0	0.0	0.0	499.0	-0.29	-0.059	
9.0	0.0	0.0	0.0	0.0	497.0	-0.303	0.006	
10.0	0.0	0.0	0.0	0.0	495.0	-0.313	0.023	
11.0	0.0	0.0	0.0	0.0	492.0	-0.325	0.029	
12.0	0.0	0.0	0.0	0.0	491.0	-0.335	0.021	
13.0	0.0	0.0	0.0	0.0	492.0	-0.348	0.047	
14.0	0.0	0.0	0.0	0.0	492.0	-0.361	0.044	
15.0	0.0	0.0	0.0	0.0	493.0	-0.371	0.026	
0.0	0.0	0.0	0.0	0.0	495.0	-0.38	0.015	
1.0	0.0	0.0	0.0	0.0	499.0	-0.39	0.009	
2.0	0.0	0.0	0.0	0.0	504.0	-0.396	-0.012	
3.0	0.0	0.0	0.0	0.0	506.0	-0.403	-0.038	
4.0	0.0	0.0	0.0	0.0	508.0	-0.409	-0.009	
5.0	0.0	0.0	0.0	0.0	510.0	-0.416	-0.009	
6.0	0.0	0.0	0.0	0.0	511.0	-0.422	0.05	
7.0	0.0	0.0	0.0	0.0	512.0	-0.425	0.082	
8.0	0.0	0.0	0.0	0.0	513.0	-0.435	0.041	
9.0	0.0	0.0	0.0	0.0	513.0	-0.438	0.041	
10.0	0.0	0.0	0.0	0.0	514.0	-0.442	0.009	
11.0	0.0	0.0	0.0	0.0	516.0	-0.448	-0.044	
12.0	0.0	0.0	0.0	0.0	518.0	-0.454	-0.038	
13.0	0.0	0.0	0.0	0.0	519.0	-0.458	-0.094	
14.0	0.0	0.0	0.0	0.0	521.0	-0.464	-0.023	
15.0	0.0	0.0	0.0	0.0	520.0	-0.467	0.539	
0.0	0.0	0.0	0.0	0.0	522.0	-0.477	1.485	
1.0	0.0	0.0	0.0	0.0	522.0	-0.48	1.494	
2.0	0.0	0.0	0.0	0.0	522.0	-0.483	0.741	
3.0	0.0	0.0	0.0	0.0	522.0	-0.493	-0.041	
4.0	0.0	0.0	0.0	0.0	521.0	-0.496	-0.413	
5.0	0.0	0.0	0.0	0.0	520.0	-0.503	-0.422	
6.0	0.0	0.0	0.0	0.0	519.0	-0.503	-0.398	
7.0	0.0	0.0	0.0	0.0	518.0	-0.506	-0.363	
8.0	0.0	0.0	0.0	0.0	515.0	-0.503	-0.34	
9.0	0.0	0.0	0.0	0.0	515.0	-0.506	-0.311	
10.0	0.0	0.0	0.0	0.0	515.0	-0.506	-0.258	
11.0	0.0	0.0	0.0	0.0	515.0	-0.509	-0.188	
12.0	0.0	0.0	0.0	0.0	516.0	-0.512	-0.158	
13.0	0.0	0.0	0.0	0.0	516.0	-0.516	-0.155	
14.0	0.0	0.0	0.0	0.0	516.0	-0.519	-0.082	
15.0	0.0	0.0	0.0	0.0	514.0	-0.522	-0.059	
0.0	0.0	0.0	0.0	0.0	511.0	-0.529	-0.009	
1.0	0.0	0.0	0.0	0.0	508.0	-0.532	0.021	
2.0	0.0	0.0	0.0	0.0	503.0	-0.541	0.053	
3.0	0.0	0.0	0.0	0.0	495.0	-0.554	0.091	
4.0	0.0	0.0	0.0	0.0	488.0	-0.561	0.126	
5.0	0.0	0.0	0.0	0.0	480.0	-0.57	0.144	
6.0	0.0	0.0	0.0	0.0	473.0	-0.583	0.161	
7.0	0.0	0.0	0.0	0.0	467.0	-0.593	0.182	
8.0	0.0	0.0	0.0	0.0	461.0	-0.599	0.196	
9.0	0.0	0.0	0.0	0.0	456.0	-0.609	0.193	
10.0	0.0	0.0	0.0	0.0	452.0	-0.616	0.193	
11.0	0.0	0.0	0.0	0.0	450.0	-0.619	0.097	
12.0	0.0	0.0	0.0	0.0	450.0	-0.622	-0.015	
13.0	0.0	0.0	0.0	0.0	448.0	-0.628	-0.144	
14.0	0.0	0.0	0.0	0.0	449.0	-0.628	-0.252	
15.0	0.0	0.0	0.0	0.0	446.0	-0.632	-0.313	
0.0	0.0	0.0	0.0	0.0	441.0	-0.635	-0.319	
1.0	0.0	0.0	0.0	0.0	436.0	-0.638	-0.311	
2.0	0.0	0.0	0.0	0.0	430.0	-0.638	-0.278	
3.0	0.0	0.0	0.0	0.0	425.0	-0.641	-0.237	
4.0	0.0	0.0	0.0	0.0	423.0	-0.645	-0.226	
5.0	0.0	0.0	0.0	0.0	422.0	-0.648	-0.243	
6.0	0.0	0.0	0.0	0.0	422.0	-0.648	-0.176	
7.0	0.0	0.0	0.0	0.0	423.0	-0.648	-0.144	
8.0	0.0	0.0	0.0	0.0	426.0	-0.645	-0.161	
9.0	0.0	0.0	0.0	0.0	431.0	-0.645	-0.108	
10.0	0.0	0.0	0.0	0.0	438.0	-0.638	-0.076	
11.0	0.0	0.0	0.0	0.0	444.0	-0.628	-0.032	
12.0	0.0	0.0	0.0	0.0	448.0	-0.622	-0.026	
13.0	0.0	0.0	0.0	0.0	454.0	-0.612	-0.003	
14.0	0.0	0.0	0.0	0.0	455.0	-0.603	0.0	
15.0	0.0	0.0	0.0	0.0	456.0	-0.593	0.041	
0.0	0.0	0.0	0.0	0.0	455.0	-0.587	0.029	
1.0	0.0	0.0	0.0	0.0	456.0	-0.58	-0.003	
2.0	0.0	0.0	0.0	0.0	455.0	-0.57	-0.012	
3.0	0.0	0.0	0.0	0.0	453.0	-0.567	-0.012	
4.0	0.0	0.0	0.0	0.0	449.0	-0.561	-0.003	
5.0	0.0	0.0	0.0	0.0	444.0	-0.558	-0.015	
6.0	0.0	0.0	0.0	0.0	441.0	-0.551	-0.026	
7.0	0.0	0.0	0.0	0.0	436.0	-0.548	-0.032	
8.0	0.0	0.0	0.0	0.0	434.0	-0.541	0.003	
9.0	0.0	0.0	0.0	0.0	431.0	-0.535	-0.006	
10.0	0.0	0.0	0.0	0.0	430.0	-0.529	0.012	
11.0	0.0	0.0	0.0	0.0	427.0	-0.522	0.021	
12.0	0.0	0.0	0.0	0.0	424.0	-0.516	0.006	
13.0	0.0	0.0	0.0	0.0	422.0	-0.509	0.018	
14.0	0.0	0.0	0.0	0.0	419.0	-0.503	0.021	
15.0	0.0	0.0	0.0	0.0	420.0	-0.496	-0.026	
0.0	0.0	0.0	0.0	0.0	422.0	-0.49	-0.032	
1.0	0.0	0.0	0.0	0.0	425.0	-0.483	-0.023	
2.0	0.0	0.0	0.0	0.0	427.0	-0.48	-0.076	
3.0	0.0	0.0	0.0	0.0	427.0	-0.477	-0.026	
4.0	0.0	0.0	0.0	0.0	425.0	-0.471	-0.047	
5.0	0.0	0.0	0.0	0.0	427.0	-0.467	-0.038	
6.0	0.0	0.0	0.0	0.0	427.0	-0.464	-0.003	
7.0	0.0	0.0	0.0	0.0	428.0	-0.461	-0.006	
8.0	0.0	0.0	0.0	0.0	431.0	-0.461	0.0	
9.0	0.0	0.0	0.0	0.0	433.0	-0.458	-0.012	
10.0	0.0	0.0	0.0	0.0	437.0	-0.451	-0.026	
11.0	0.0	0.0	0.0	0.0	440.0	-0.448	-0.047	
12.0	0.0	0.0	0.0	0.0	442.0	-0.445	-0.026	
13.0	0.0	0.0	0.0	0.0	444.0	-0.442	-0.038	
14.0	0.0	0.0	0.0	0.0	448.0	-0.438	0.012	
15.0	0.0	0.0	0.0	0.0	451.0	-0.435	0.0	
0.0	0.0	0.0	0.0	0.0	459.0	-0.429	0.026	
1.0	0.0	0.0	0.0	0.0	467.0	-0.425	0.044	
2.0	0.0	0.0	0.0	0.0	474.0	-0.419	0.029	
3.0	0.0	0.0	0.0	0.0	479.0	-0.416	0.018	
4.0	0.0	0.0	0.0	0.0	487.0	-0.409	-0.003	
5.0	0.0	0.0	0.0	0.0	499.0	-0.403	0.041	
6.0	0.0	0.0	0.0	0.0	516.0	-0.403	0.047	
7.0	0.0	0.0	0.0	0.0	533.0	-0.396	0.082	
8.0	0.0	0.0	0.0	0.0	549.0	-0.393	0.103	
9.0	0.0	0.0	0.0	0.0	563.0	-0.39	0.07	
10.0	0.0	0.0	0.0	0.0	572.0	-0.383	0.041	
11.0	0.0	0.0	0.0	0.0	574.0	-0.38	0.023	
12.0	0.0	0.0	0.0	0.0	574.0	-0.377	0.021	
13.0	0.0	0.0	0.0	0.0	572.0	-0.374	-0.003	
14.0	0.0	0.0	0.0	0.0	566.0	-0.367	-0.079	
15.0	0.0	0.0	0.0	0.0	559.0	-0.364	0.021	
0.0	0.0	0.0	0.0	0.0	552.0	-0.361	0.601	
1.0	0.0	0.0	0.0	0.0	545.0	-0.358	1.494	
2.0	0.0	0.0	0.0	0.0	537.0	-0.354	1.494	
3.0	0.0	0.0	0.0	0.0	530.0	-0.351	0.633	
4.0	0.0	0.0	0.0	0.0	524.0	-0.345	-0.105	
5.0	0.0	0.0	0.0	0.0	518.0	-0.342	-0.442	
6.0	0.0	0.0	0.0	0.0	511.0	-0.342	-0.454	
7.0	0.0	0.0	0.0	0.0	506.0	-0.335	-0.434	
8.0	0.0	0.0	0.0	0.0	502.0	-0.329	-0.419	
9.0	0.0	0.0	0.0	0.0	499.0	-0.322	-0.398	
10.0	0.0	0.0	0.0	0.0	498.0	-0.316	-0.375	
11.0	0.0	0.0	0.0	0.0	494.0	-0.313	-0.296	
12.0	0.0	0.0	0.0	0.0	494.0	-0.309	-0.237	
13.0	0.0	0.0	0.0	0.0	495.0	-0.309	-0.193	
14.0	0.0	0.0	0.0	0.0	496.0	-0.309	-0.185	
15.0	0.0	0.0	0.0	0.0	497.0	-0.309	-0.12	
0.0	0.0	0.0	0.0	0.0	499.0	-0.309	-0.097	
1.0	0.0	0.0	0.0	0.0	499.0	-0.309	-0.059	
2.0	0.0	0.0	0.0	0.0	499.0	-0.309	-0.026	
3.0	0.0	0.0	0.0	0.0	500.0	-0.313	0.035	
4.0	0.0	0.0	0.0	0.0	502.0	-0.319	0.1	
5.0	0.0	0.0	0.0	0.0	503.0	-0.329	0.144	
6.0	0.0	0.0	0.0	0.0	504.0	-0.338	0.129	
7.0	0.0	0.0	0.0	0.0	505.0	-0.351	0.141	
8.0	0.0	0.0	0.0	0.0	507.0	-0.364	0.167	
9.0	0.0	0.0	0.0	0.0	509.0	-0.374	0.214	
10.0	0.0	0.0	0.0	0.0	510.0	-0.383	0.261	
11.0	0.0	0.0	0.0	0.0	511.0	-0.387	0.182	
12.0	0.0	0.0	0.0	0.0	509.0	-0.39	0.076	
13.0	0.0	0.0	0.0	0.0	508.0	-0.393	-0.035	
14.0	0.0	0.0	0.0	0.0	507.0	-0.396	-0.17	
15.0	0.0	0.0	0.0	0.0	506.0	-0.4	-0.284	
0.0	0.0	0.0	0.0	0.0	508.0	-0.4	-0.311	
1.0	0.0	0.0	0.0	0.0	510.0	-0.403	-0.311	
2.0	0.0	0.0	0.0	0.0	512.0	-0.403	-0.325	
3.0	0.0	0.0	0.0	0.0	513.0	-0.403	-0.281	
4.0	0.0	0.0	0.0	0.0	513.0	-0.406	-0.284	
5.0	0.0	0.0	0.0	0.0	514.0	-0.406	-0.261	
6.0	0.0	0.0	0.0	0.0	513.0	-0.409	-0.193	
7.0	0.0	0.0	0.0	0.0	512.0	-0.413	-0.141	
8.0	0.0	0.0	0.0	0.0	510.0	-0.413	-0.123	
9.0	0.0	0.0	0.0	0.0	508.0	-0.409	-0.185	
10.0	0.0	0.0	0.0	0.0	505.0	-0.406	-0.167	
11.0	0.0	0.0	0.0	0.0	502.0	-0.396	-0.085	
12.0	0.0	0.0	0.0	0.0	499.0	-0.39	-0.044	
13.0	0.0	0.0	0.0	0.0	495.0	-0.377	-0.038	
14.0	0.0	0.0	0.0	0.0	492.0	-0.367	-0.067	
15.0	0.0	0.0	0.0	0.0	488.0	-0.364	-0.029	
0.0	0.0	0.0	0.0	0.0	488.0	-0.358	0.038	
1.0	0.0	0.0	0.0	0.0	489.0	-0.351	0.085	
2.0	0.0	0.0	0.0	0.0	491.0	-0.348	0.073	
3.0	0.0	0.0	0.0	0.0	491.0	-0.345	0.091	
4.0	0.0	0.0	0.0	0.0	493.0	-0.342	0.023	
5.0	0.0	0.0	0.0	0.0	492.0	-0.338	-0.035	
6.0	0.0	0.0	0.0	0.0	491.0	-0.335	-0.097	
7.0	0.0	0.0	0.0	0.0	491.0	-0.329	-0.029	
8.0	0.0	0.0	0.0	0.0	490.0	-0.322	-0.044	
9.0	0.0	0.0	0.0	0.0	490.0	-0.313	-0.073	
10.0	0.0	0.0	0.0	0.0	494.0	-0.303	-0.07	
11.0	0.0	0.0	0.0	0.0	497.0	-0.293	-0.029	
12.0	0.0	0.0	0.0	0.0	501.0	-0.28	0.012	
13.0	0.0	0.0	0.0	0.0	504.0	-0.267	0.041	
14.0	0.0	0.0	0.0	0.0	507.0	-0.258	0.07	
15.0	0.0	0.0	0.0	0.0	511.0	-0.245	0.064	
0.0	0.0	0.0	0.0	0.0	515.0	-0.232	0.082	
1.0	0.0	0.0	0.0	0.0	519.0	-0.219	0.026	
2.0	0.0	0.0	0.0	0.0	526.0	-0.206	0.006	
3.0	0.0	0.0	0.0	0.0	531.0	-0.197	-0.038	
4.0	0.0	0.0	0.0	0.0	536.0	-0.184	-0.044	
5.0	0.0	0.0	0.0	0.0	542.0	-0.171	-0.076	
6.0	0.0	0.0	0.0	0.0	545.0	-0.158	-0.038	
7.0	0.0	0.0	0.0	0.0	547.0	-0.145	-0.009	
8.0	0.0	0.0	0.0	0.0	549.0	-0.129	0.023	
9.0	0.0	0.0	0.0	0.0	548.0	-0.116	0.067	
10.0	0.0	0.0	0.0	0.0	546.0	-0.103	0.094	
11.0	0.0	0.0	0.0	0.0	542.0	-0.09	0.082	
12.0	0.0	0.0	0.0	0.0	539.0	-0.081	0.105	
13.0	0.0	0.0	0.0	0.0	535.0	-0.068	0.038	
14.0	0.0	0.0	0.0	0.0	530.0	-0.061	0.006	
15.0	0.0	0.0	0.0	0.0	526.0	-0.055	0.032	
0.0	0.0	0.0	0.0	0.0	524.0	-0.052	0.026	
1.0	0.0	0.0	0.0	0.0	521.0	-0.048	0.041	
2.0	0.0	0.0	0.0	0.0	519.0	-0.045	0.009	
3.0	0.0	0.0	0.0	0.0	517.0	-0.042	0.023	
4.0	0.0	0.0	0.0	0.0	516.0	-0.039	0.015	
5.0	0.0	0.0	0.0	0.0	514.0	-0.035	-0.006	
6.0	0.0	0.0	0.0	0.0	515.0	-0.029	-0.012	
7.0	0.0	0.0	0.0	0.0	515.0	-0.023	0.015	
8.0	0.0	0.0	0.0	0.0	516.0	-0.016	0.015	
9.0	0.0	0.0	0.0	0.0	516.0	-0.01	0.059	
10.0	0.0	0.0	0.0	0.0	516.0	-0.003	0.003	
11.0	0.0	0.0	0.0	0.0	517.0	0.003	0.009	
12.0	0.0	0.0	0.0	0.0	518.0	0.006	-0.035	
13.0	0.0	0.0	0.0	0.0	517.0	0.01	-0.044	
14.0	0.0	0.0	0.0	0.0	516.0	0.016	-0.053	
15.0	0.0	0.0	0.0	0.0	514.0	0.023	-0.082	
0.0	0.0	0.0	0.0	0.0	512.0	0.026	-0.123	
1.0	0.0	0.0	0.0	0.0	512.0	0.035	0.261	
2.0	0.0	0.0	0.0	0.0	512.0	0.039	1.204	
3.0	0.0	0.0	0.0	0.0	509.0	0.045	1.494	
4.0	0.0	0.0	0.0	0.0	508.0	0.048	0.926	
5.0	0.0	0.0	0.0	0.0	507.0	0.055	0.067	
6.0	0.0	0.0	0.0	0.0	505.0	0.058	-0.39	
7.0	0.0	0.0	0.0	0.0	504.0	0.061	-0.501	
8.0	0.0	0.0	0.0	0.0	503.0	0.068	-0.469	
9.0	0.0	0.0	0.0	0.0	505.0	0.074	-0.454	
10.0	0.0	0.0	0.0	0.0	504.0	0.087	-0.442	
11.0	0.0	0.0	0.0	0.0	505.0	0.09	-0.357	
12.0	0.0	0.0	0.0	0.0	505.0	0.1	-0.293	
13.0	0.0	0.0	0.0	0.0	505.0	0.106	-0.226	
14.0	0.0	0.0	0.0	0.0	505.0	0.113	-0.193	
15.0	0.0	0.0	0.0	0.0	505.0	0.116	-0.167	
0.0	0.0	0.0	0.0	0.0	506.0	0.119	-0.138	
1.0	0.0	0.0	0.0	0.0	507.0	0.122	-0.082	
2.0	0.0	0.0	0.0	0.0	505.0	0.126	-0.059	
3.0	0.0	0.0	0.0	0.0	505.0	0.132	-0.021	
4.0	0.0	0.0	0.0	0.0	505.0	0.132	0.012	
5.0	0.0	0.0	0.0	0.0	504.0	0.132	0.012	
6.0	0.0	0.0	0.0	0.0	503.0	0.126	0.067	
7.0	0.0	0.0	0.0	0.0	502.0	0.116	0.126	
8.0	0.0	0.0	0.0	0.0	502.0	0.103	0.173	
9.0	0.0	0.0	0.0	0.0	503.0	0.093	0.208	
10.0	0.0	0.0	0.0	0.0	503.0	0.084	0.199	
11.0	0.0	0.0	0.0	0.0	502.0	0.077	0.196	
12.0	0.0	0.0	0.0	0.0	500.0	0.077	0.208	
13.0	0.0	0.0	0.0	0.0	497.0	0.077	0.149	
14.0	0.0	0.0	0.0	0.0	497.0	0.077	0.021	
15.0	0.0	0.0	0.0	0.0	499.0	0.077	-0.111	
0.0	0.0	0.0	0.0	0.0	501.0	0.074	-0.231	
1.0	0.0	0.0	0.0	0.0	503.0	0.074	-0.316	
2.0	0.0	0.0	0.0	0.0	503.0	0.068	-0.34	
3.0	0.0	0.0	0.0	0.0	505.0	0.061	-0.343	
4.0	0.0	0.0	0.0	0.0	508.0	0.058	-0.325	
5.0	0.0	0.0	0.0	0.0	511.0	0.052	-0.305	
6.0	0.0	0.0	0.0	0.0	514.0	0.048	-0.27	
7.0	0.0	0.0	0.0	0.0	516.0	0.045	-0.223	
8.0	0.0	0.0	0.0	0.0	518.0	0.042	-0.196	
9.0	0.0	0.0	0.0	0.0	519.0	0.042	-0.182	
10.0	0.0	0.0	0.0	0.0	519.0	0.042	-0.152	
11.0	0.0	0.0	0.0	0.0	520.0	0.042	-0.097	
12.0	0.0	0.0	0.0	0.0	520.0	0.045	-0.041	
13.0	0.0	0.0	0.0	0.0	524.0	0.048	-0.023	
14.0	0.0	0.0	0.0	0.0	525.0	0.055	-0.026	
15.0	0.0	0.0	0.0	0.0	523.0	0.061	-0.038	
0.0	0.0	0.0	0.0	0.0	521.0	0.064	0.012	
1.0	0.0	0.0	0.0	0.0	520.0	0.068	0.021	
2.0	0.0	0.0	0.0	0.0	519.0	0.068	0.035	
3.0	0.0	0.0	0.0	0.0	517.0	0.064	0.062	
4.0	0.0	0.0	0.0	0.0	517.0	0.064	0.097	
5.0	0.0	0.0	0.0	0.0	519.0	0.068	0.132	
6.0	0.0	0.0	0.0	0.0	520.0	0.081	0.091	
7.0	0.0	0.0	0.0	0.0	522.0	0.097	0.091	
8.0	0.0	0.0	0.0	0.0	523.0	0.116	0.129	
9.0	0.0	0.0	0.0	0.0	523.0	0.135	0.117	
10.0	0.0	0.0	0.0	0.0	522.0	0.148	0.149	
11.0	0.0	0.0	0.0	0.0	523.0	0.158	0.196	
12.0	0.0	0.0	0.0	0.0	524.0	0.164	0.237	
13.0	0.0	0.0	0.0	0.0	524.0	0.174	0.27	
14.0	0.0	0.0	0.0	0.0	523.0	0.18	0.229	
15.0	0.0	0.0	0.0	0.0	525.0	0.19	0.214	
0.0	0.0	0.0	0.0	0.0	527.0	0.197	0.199	
1.0	0.0	0.0	0.0	0.0	528.0	0.2	0.161	
2.0	0.0	0.0	0.0	0.0	530.0	0.2	0.088	
3.0	0.0	0.0	0.0	0.0	533.0	0.197	0.053	
4.0	0.0	0.0	0.0	0.0	535.0	0.19	-0.029	
5.0	0.0	0.0	0.0	0.0	537.0	0.177	-0.059	
6.0	0.0	0.0	0.0	0.0	539.0	0.171	-0.144	
7.0	0.0	0.0	0.0	0.0	537.0	0.164	-0.205	
8.0	0.0	0.0	0.0	0.0	537.0	0.164	-0.246	
9.0	0.0	0.0	0.0	0.0	534.0	0.164	-0.141	
10.0	0.0	0.0	0.0	0.0	533.0	0.158	-0.138	
11.0	0.0	0.0	0.0	0.0	531.0	0.151	-0.231	
12.0	0.0	0.0	0.0	0.0	531.0	0.139	-0.193	
13.0	0.0	0.0	0.0	0.0	531.0	0.122	-0.208	
14.0	0.0	0.0	0.0	0.0	531.0	0.103	-0.161	
15.0	0.0	0.0	0.0	0.0	531.0	0.081	-0.129	
0.0	0.0	0.0	0.0	0.0	531.0	0.058	-0.056	
1.0	0.0	0.0	0.0	0.0	530.0	0.035	0.006	
2.0	0.0	0.0	0.0	0.0	530.0	0.006	-0.035	
3.0	0.0	0.0	0.0	0.0	530.0	-0.019	0.009	
4.0	0.0	0.0	0.0	0.0	528.0	-0.048	-0.073	
5.0	0.0	0.0	0.0	0.0	527.0	-0.074	-0.108	
6.0	0.0	0.0	0.0	0.0	525.0	-0.093	-0.117	
7.0	0.0	0.0	0.0	0.0	524.0	-0.116	-0.041	
8.0	0.0	0.0	0.0	0.0	519.0	-0.139	0.158	
9.0	0.0	0.0	0.0	0.0	515.0	-0.158	0.246	
10.0	0.0	0.0	0.0	0.0	514.0	-0.177	0.328	
11.0	0.0	0.0	0.0	0.0	515.0	-0.197	0.305	
12.0	0.0	0.0	0.0	0.0	515.0	-0.219	0.188	
13.0	0.0	0.0	0.0	0.0	515.0	-0.235	0.041	
14.0	0.0	0.0	0.0	0.0	516.0	-0.258	-0.032	
15.0	0.0	0.0	0.0	0.0	518.0	-0.274	-0.226	
0.0	0.0	0.0	0.0	0.0	518.0	-0.29	0.026	
1.0	0.0	0.0	0.0	0.0	518.0	-0.306	0.932	
2.0	0.0	0.0	0.0	0.0	520.0	-0.322	1.494	
3.0	0.0	0.0	0.0	0.0	519.0	-0.335	1.239	
4.0	0.0	0.0	0.0	0.0	519.0	-0.351	0.322	
5.0	0.0	0.0	0.0	0.0	519.0	-0.364	-0.144	
6.0	0.0	0.0	0.0	0.0	518.0	-0.377	-0.302	
7.0	0.0	0.0	0.0	0.0	513.0	-0.383	-0.296	
8.0	0.0	0.0	0.0	0.0	506.0	-0.39	-0.322	
9.0	0.0	0.0	0.0	0.0	498.0	-0.393	-0.287	
10.0	0.0	0.0	0.0	0.0	492.0	-0.4	-0.305	
11.0	0.0	0.0	0.0	0.0	487.0	-0.406	-0.319	
12.0	0.0	0.0	0.0	0.0	483.0	-0.409	-0.249	
13.0	0.0	0.0	0.0	0.0	481.0	-0.416	-0.214	
14.0	0.0	0.0	0.0	0.0	482.0	-0.419	-0.19	
15.0	0.0	0.0	0.0	0.0	481.0	-0.429	-0.179	
0.0	0.0	0.0	0.0	0.0	481.0	-0.432	-0.223	
1.0	0.0	0.0	0.0	0.0	480.0	-0.435	-0.272	
2.0	0.0	0.0	0.0	0.0	481.0	-0.438	-0.261	
3.0	0.0	0.0	0.0	0.0	482.0	-0.445	-0.176	
4.0	0.0	0.0	0.0	0.0	484.0	-0.454	-0.07	
5.0	0.0	0.0	0.0	0.0	487.0	-0.461	0.026	
6.0	0.0	0.0	0.0	0.0	491.0	-0.471	0.126	
7.0	0.0	0.0	0.0	0.0	495.0	-0.48	0.138	
8.0	0.0	0.0	0.0	0.0	498.0	-0.49	0.155	
9.0	0.0	0.0	0.0	0.0	502.0	-0.5	0.208	
10.0	0.0	0.0	0.0	0.0	508.0	-0.506	0.146	
11.0	0.0	0.0	0.0	0.0	514.0	-0.512	0.164	
12.0	0.0	0.0	0.0	0.0	521.0	-0.516	0.12	
13.0	0.0	0.0	0.0	0.0	532.0	-0.519	-0.003	
14.0	0.0	0.0	0.0	0.0	546.0	-0.522	-0.144	
15.0	0.0	0.0	0.0	0.0	562.0	-0.525	-0.275	
0.0	0.0	0.0	0.0	0.0	579.0	-0.525	-0.325	
1.0	0.0	0.0	0.0	0.0	594.0	-0.529	-0.369	
2.0	0.0	0.0	0.0	0.0	609.0	-0.529	-0.354	
3.0	0.0	0.0	0.0	0.0	622.0	-0.529	-0.305	
4.0	0.0	0.0	0.0	0.0	631.0	-0.535	-0.211	
5.0	0.0	0.0	0.0	0.0	637.0	-0.535	-0.173	
6.0	0.0	0.0	0.0	0.0	639.0	-0.538	-0.155	
7.0	0.0	0.0	0.0	0.0	636.0	-0.538	-0.117	
8.0	0.0	0.0	0.0	0.0	629.0	-0.532	-0.161	
9.0	0.0	0.0	0.0	0.0	617.0	-0.535	-0.146	
10.0	0.0	0.0	0.0	0.0	604.0	-0.529	-0.059	
11.0	0.0	0.0	0.0	0.0	590.0	-0.522	-0.038	
12.0	0.0	0.0	0.0	0.0	573.0	-0.516	0.032	
13.0	0.0	0.0	0.0	0.0	556.0	-0.509	0.047	
14.0	0.0	0.0	0.0	0.0	540.0	-0.5	0.023	
15.0	0.0	0.0	0.0	0.0	524.0	-0.493	-0.003	
0.0	0.0	0.0	0.0	0.0	511.0	-0.487	0.009	
1.0	0.0	0.0	0.0	0.0	498.0	-0.483	0.003	
2.0	0.0	0.0	0.0	0.0	487.0	-0.477	0.05	
3.0	0.0	0.0	0.0	0.0	478.0	-0.477	0.041	
4.0	0.0	0.0	0.0	0.0	470.0	-0.474	0.05	
5.0	0.0	0.0	0.0	0.0	463.0	-0.474	0.041	
6.0	0.0	0.0	0.0	0.0	457.0	-0.471	-0.012	
7.0	0.0	0.0	0.0	0.0	451.0	-0.471	-0.018	
8.0	0.0	0.0	0.0	0.0	444.0	-0.471	-0.023	
9.0	0.0	0.0	0.0	0.0	437.0	-0.471	-0.05	
10.0	0.0	0.0	0.0	0.0	427.0	-0.471	-0.003	
11.0	0.0	0.0	0.0	0.0	416.0	-0.471	-0.003	
12.0	0.0	0.0	0.0	0.0	402.0	-0.467	0.018	
13.0	0.0	0.0	0.0	0.0	384.0	-0.464	-0.023	
14.0	0.0	0.0	0.0	0.0	359.0	-0.461	-0.021	
15.0	0.0	0.0	0.0	0.0	324.0	-0.454	0.021	
0.0	0.0	0.0	0.0	0.0	277.0	-0.451	0.021	
1.0	0.0	0.0	0.0	0.0	223.0	-0.448	-0.021	
2.0	0.0	0.0	0.0	0.0	167.0	-0.445	-0.053	
3.0	0.0	0.0	0.0	0.0	119.0	-0.442	-0.047	
4.0	0.0	0.0	0.0	0.0	82.0	-0.435	-0.023	
5.0	0.0	0.0	0.0	0.0	58.0	-0.435	-0.018	
6.0	0.0	0.0	0.0	0.0	44.0	-0.432	-0.012	
7.0	0.0	0.0	0.0	0.0	39.0	-0.432	0.003	
8.0	0.0	0.0	0.0	0.0	39.0	-0.429	0.044	
9.0	0.0	0.0	0.0	0.0	44.0	-0.429	0.026	
10.0	0.0	0.0	0.0	0.0	53.0	-0.422	0.003	
11.0	0.0	0.0	0.0	0.0	68.0	-0.422	0.0	
12.0	0.0	0.0	0.0	0.0	86.0	-0.419	-0.053	
13.0	0.0	0.0	0.0	0.0	109.0	-0.413	-0.038	
14.0	0.0	0.0	0.0	0.0	134.0	-0.413	0.006	
15.0	0.0	0.0	0.0	0.0	158.0	-0.406	0.003	
0.0	0.0	0.0	0.0	0.0	180.0	-0.403	0.003	
1.0	0.0	0.0	0.0	0.0	204.0	-0.4	-0.006	
2.0	0.0	0.0	0.0	0.0	228.0	-0.393	-0.012	
3.0	0.0	0.0	0.0	0.0	256.0	-0.387	0.0	
4.0	0.0	0.0	0.0	0.0	285.0	-0.38	0.018	
5.0	0.0	0.0	0.0	0.0	315.0	-0.374	-0.015	
6.0	0.0	0.0	0.0	0.0	346.0	-0.367	-0.023	
7.0	0.0	0.0	0.0	0.0	374.0	-0.361	-0.006	
8.0	0.0	0.0	0.0	0.0	398.0	-0.354	0.044	
9.0	0.0	0.0	0.0	0.0	422.0	-0.351	0.023	
10.0	0.0	0.0	0.0	0.0	446.0	-0.342	0.091	
11.0	0.0	0.0	0.0	0.0	466.0	-0.338	0.085	
12.0	0.0	0.0	0.0	0.0	488.0	-0.335	0.091	
13.0	0.0	0.0	0.0	0.0	512.0	-0.332	0.067	
14.0	0.0	0.0	0.0	0.0	538.0	-0.325	0.035	
15.0	0.0	0.0	0.0	0.0	560.0	-0.322	0.029	
0.0	0.0	0.0	0.0	0.0	576.0	-0.322	-0.015	
1.0	0.0	0.0	0.0	0.0	585.0	-0.316	-0.003	
2.0	0.0	0.0	0.0	0.0	586.0	-0.313	0.223	
3.0	0.0	0.0	0.0	0.0	578.0	-0.306	1.195	
4.0	0.0	0.0	0.0	0.0	563.0	-0.3	1.494	
5.0	0.0	0.0	0.0	0.0	540.0	-0.296	1.192	
6.0	0.0	0.0	0.0	0.0	513.0	-0.29	0.19	
7.0	0.0	0.0	0.0	0.0	487.0	-0.287	-0.331	
8.0	0.0	0.0	0.0	0.0	460.0	-0.28	-0.419	
9.0	0.0	0.0	0.0	0.0	435.0	-0.274	-0.425	
10.0	0.0	0.0	0.0	0.0	413.0	-0.267	-0.407	
11.0	0.0	0.0	0.0	0.0	395.0	-0.255	-0.396	
12.0	0.0	0.0	0.0	0.0	378.0	-0.248	-0.354	
13.0	0.0	0.0	0.0	0.0	369.0	-0.242	-0.331	
14.0	0.0	0.0	0.0	0.0	362.0	-0.235	-0.287	
15.0	0.0	0.0	0.0	0.0	360.0	-0.229	-0.226	
0.0	0.0	0.0	0.0	0.0	363.0	-0.226	-0.255	
1.0	0.0	0.0	0.0	0.0	373.0	-0.222	-0.176	
2.0	0.0	0.0	0.0	0.0	389.0	-0.222	-0.117	
3.0	0.0	0.0	0.0	0.0	406.0	-0.222	-0.056	
4.0	0.0	0.0	0.0	0.0	429.0	-0.222	-0.015	
5.0	0.0	0.0	0.0	0.0	451.0	-0.229	-0.018	
6.0	0.0	0.0	0.0	0.0	472.0	-0.235	0.021	
7.0	0.0	0.0	0.0	0.0	489.0	-0.248	0.053	
8.0	0.0	0.0	0.0	0.0	503.0	-0.261	0.149	
9.0	0.0	0.0	0.0	0.0	511.0	-0.274	0.193	
10.0	0.0	0.0	0.0	0.0	518.0	-0.29	0.24	
11.0	0.0	0.0	0.0	0.0	525.0	-0.306	0.24	
12.0	0.0	0.0	0.0	0.0	531.0	-0.319	0.24	
13.0	0.0	0.0	0.0	0.0	536.0	-0.329	0.231	
14.0	0.0	0.0	0.0	0.0	541.0	-0.335	0.185	
15.0	0.0	0.0	0.0	0.0	548.0	-0.342	0.079	
0.0	0.0	0.0	0.0	0.0	556.0	-0.345	-0.097	
1.0	0.0	0.0	0.0	0.0	563.0	-0.342	-0.223	
2.0	0.0	0.0	0.0	0.0	568.0	-0.338	-0.328	
3.0	0.0	0.0	0.0	0.0	569.0	-0.332	-0.407	
4.0	0.0	0.0	0.0	0.0	569.0	-0.322	-0.454	
5.0	0.0	0.0	0.0	0.0	568.0	-0.306	-0.439	
6.0	0.0	0.0	0.0	0.0	565.0	-0.287	-0.372	
7.0	0.0	0.0	0.0	0.0	560.0	-0.264	-0.319	
8.0	0.0	0.0	0.0	0.0	552.0	-0.238	-0.293	
9.0	0.0	0.0	0.0	0.0	544.0	-0.209	-0.24	
10.0	0.0	0.0	0.0	0.0	538.0	-0.184	-0.19	
11.0	0.0	0.0	0.0	0.0	534.0	-0.158	-0.114	
12.0	0.0	0.0	0.0	0.0	528.0	-0.129	-0.091	
13.0	0.0	0.0	0.0	0.0	524.0	-0.1	-0.126	
14.0	0.0	0.0	0.0	0.0	519.0	-0.068	-0.085	
15.0	0.0	0.0	0.0	0.0	518.0	-0.039	-0.064	
0.0	0.0	0.0	0.0	0.0	516.0	-0.01	-0.085	
1.0	0.0	0.0	0.0	0.0	513.0	0.016	-0.006	
2.0	0.0	0.0	0.0	0.0	512.0	0.042	-0.023	
3.0	0.0	0.0	0.0	0.0	512.0	0.068	-0.021	
4.0	0.0	0.0	0.0	0.0	513.0	0.087	0.0	
5.0	0.0	0.0	0.0	0.0	514.0	0.106	-0.012	
6.0	0.0	0.0	0.0	0.0	516.0	0.122	0.009	
7.0	0.0	0.0	0.0	0.0	519.0	0.135	-0.012	
8.0	0.0	0.0	0.0	0.0	519.0	0.148	-0.006	
9.0	0.0	0.0	0.0	0.0	519.0	0.161	-0.032	
10.0	0.0	0.0	0.0	0.0	518.0	0.18	-0.062	
11.0	0.0	0.0	0.0	0.0	515.0	0.197	-0.073	
12.0	0.0	0.0	0.0	0.0	514.0	0.216	-0.059	
13.0	0.0	0.0	0.0	0.0	512.0	0.235	-0.091	
14.0	0.0	0.0	0.0	0.0	511.0	0.258	-0.1	
15.0	0.0	0.0	0.0	0.0	510.0	0.274	-0.085	
0.0	0.0	0.0	0.0	0.0	508.0	0.29	-0.056	
1.0	0.0	0.0	0.0	0.0	507.0	0.3	-0.021	
2.0	0.0	0.0	0.0	0.0	506.0	0.309	0.035	
3.0	0.0	0.0	0.0	0.0	505.0	0.313	0.073	
4.0	0.0	0.0	0.0	0.0	504.0	0.319	0.053	
5.0	0.0	0.0	0.0	0.0	503.0	0.325	0.026	
6.0	0.0	0.0	0.0	0.0	503.0	0.332	0.021	
7.0	0.0	0.0	0.0	0.0	502.0	0.338	-0.021	
8.0	0.0	0.0	0.0	0.0	501.0	0.348	-0.026	
9.0	0.0	0.0	0.0	0.0	501.0	0.354	0.015	
10.0	0.0	0.0	0.0	0.0	501.0	0.361	0.003	
11.0	0.0	0.0	0.0	0.0	499.0	0.371	0.041	
12.0	0.0	0.0	0.0	0.0	499.0	0.377	0.064	
13.0	0.0	0.0	0.0	0.0	498.0	0.387	0.056	
14.0	0.0	0.0	0.0	0.0	497.0	0.393	0.035	
15.0	0.0	0.0	0.0	0.0	499.0	0.4	0.05	
0.0	0.0	0.0	0.0	0.0	499.0	0.403	0.094	
1.0	0.0	0.0	0.0	0.0	499.0	0.409	0.091	
2.0	0.0	0.0	0.0	0.0	499.0	0.409	0.094	
3.0	0.0	0.0	0.0	0.0	501.0	0.413	0.114	
4.0	0.0	0.0	0.0	0.0	502.0	0.416	0.149	
5.0	0.0	0.0	0.0	0.0	501.0	0.419	0.19	
6.0	0.0	0.0	0.0	0.0	501.0	0.419	0.196	
7.0	0.0	0.0	0.0	0.0	499.0	0.416	0.229	
8.0	0.0	0.0	0.0	0.0	498.0	0.416	0.229	
9.0	0.0	0.0	0.0	0.0	496.0	0.416	0.214	
10.0	0.0	0.0	0.0	0.0	495.0	0.409	0.229	
11.0	0.0	0.0	0.0	0.0	496.0	0.409	0.278	
12.0	0.0	0.0	0.0	0.0	498.0	0.409	0.249	
13.0	0.0	0.0	0.0	0.0	498.0	0.406	0.229	
14.0	0.0	0.0	0.0	0.0	499.0	0.4	0.202	
15.0	0.0	0.0	0.0	0.0	500.0	0.396	0.138	
0.0	0.0	0.0	0.0	0.0	500.0	0.39	0.088	
1.0	0.0	0.0	0.0	0.0	502.0	0.387	0.047	
2.0	0.0	0.0	0.0	0.0	503.0	0.387	0.021	
3.0	0.0	0.0	0.0	0.0	502.0	0.387	0.352	
4.0	0.0	0.0	0.0	0.0	500.0	0.387	1.263	
5.0	0.0	0.0	0.0	0.0	498.0	0.39	1.494	
6.0	0.0	0.0	0.0	0.0	497.0	0.393	0.981	
7.0	0.0	0.0	0.0	0.0	496.0	0.393	0.126	
8.0	0.0	0.0	0.0	0.0	495.0	0.39	-0.369	
9.0	0.0	0.0	0.0	0.0	494.0	0.383	-0.504	
10.0	0.0	0.0	0.0	0.0	494.0	0.377	-0.428	
11.0	0.0	0.0	0.0	0.0	492.0	0.371	-0.466	
12.0	0.0	0.0	0.0	0.0	490.0	0.364	-0.387	
13.0	0.0	0.0	0.0	0.0	488.0	0.361	-0.375	
14.0	0.0	0.0	0.0	0.0	486.0	0.358	-0.36	
15.0	0.0	0.0	0.0	0.0	482.0	0.358	-0.346	
0.0	0.0	0.0	0.0	0.0	480.0	0.348	-0.278	
1.0	0.0	0.0	0.0	0.0	478.0	0.332	-0.208	
2.0	0.0	0.0	0.0	0.0	476.0	0.313	-0.146	
3.0	0.0	0.0	0.0	0.0	474.0	0.293	-0.103	
4.0	0.0	0.0	0.0	0.0	475.0	0.271	-0.114	
5.0	0.0	0.0	0.0	0.0	475.0	0.248	-0.117	
6.0	0.0	0.0	0.0	0.0	477.0	0.219	-0.132	
7.0	0.0	0.0	0.0	0.0	477.0	0.19	-0.073	
8.0	0.0	0.0	0.0	0.0	479.0	0.155	-0.05	
9.0	0.0	0.0	0.0	0.0	481.0	0.116	0.059	
10.0	0.0	0.0	0.0	0.0	483.0	0.074	0.155	
11.0	0.0	0.0	0.0	0.0	486.0	0.029	0.155	
12.0	0.0	0.0	0.0	0.0	488.0	-0.016	0.155	
13.0	0.0	0.0	0.0	0.0	490.0	-0.061	0.152	
14.0	0.0	0.0	0.0	0.0	492.0	-0.103	0.097	
15.0	0.0	0.0	0.0	0.0	492.0	-0.139	-0.015	
0.0	0.0	0.0	0.0	0.0	493.0	-0.174	-0.158	
1.0	0.0	0.0	0.0	0.0	492.0	-0.203	-0.305	
2.0	0.0	0.0	0.0	0.0	493.0	-0.229	-0.398	
3.0	0.0	0.0	0.0	0.0	492.0	-0.255	-0.457	
4.0	0.0	0.0	0.0	0.0	491.0	-0.274	-0.451	
5.0	0.0	0.0	0.0	0.0	491.0	-0.296	-0.398	
6.0	0.0	0.0	0.0	0.0	492.0	-0.319	-0.325	
7.0	0.0	0.0	0.0	0.0	496.0	-0.342	-0.293	
8.0	0.0	0.0	0.0	0.0	497.0	-0.364	-0.252	
9.0	0.0	0.0	0.0	0.0	499.0	-0.39	-0.205	
10.0	0.0	0.0	0.0	0.0	501.0	-0.413	-0.211	
11.0	0.0	0.0	0.0	0.0	501.0	-0.432	-0.173	
12.0	0.0	0.0	0.0	0.0	503.0	-0.451	-0.158	
13.0	0.0	0.0	0.0	0.0	504.0	-0.467	-0.123	
14.0	0.0	0.0	0.0	0.0	504.0	-0.483	-0.018	
15.0	0.0	0.0	0.0	0.0	507.0	-0.493	0.111	
0.0	0.0	0.0	0.0	0.0	508.0	-0.506	0.1	
1.0	0.0	0.0	0.0	0.0	509.0	-0.516	0.067	
2.0	0.0	0.0	0.0	0.0	510.0	-0.525	-0.003	
3.0	0.0	0.0	0.0	0.0	509.0	-0.529	0.015	
4.0	0.0	0.0	0.0	0.0	508.0	-0.532	0.009	
5.0	0.0	0.0	0.0	0.0	508.0	-0.532	0.009	
6.0	0.0	0.0	0.0	0.0	509.0	-0.532	0.056	
7.0	0.0	0.0	0.0	0.0	508.0	-0.532	0.105	
8.0	0.0	0.0	0.0	0.0	508.0	-0.538	0.158	
9.0	0.0	0.0	0.0	0.0	508.0	-0.541	0.167	
10.0	0.0	0.0	0.0	0.0	510.0	-0.545	0.144	
11.0	0.0	0.0	0.0	0.0	511.0	-0.551	0.103	
12.0	0.0	0.0	0.0	0.0	509.0	-0.558	0.129	
13.0	0.0	0.0	0.0	0.0	510.0	-0.558	0.103	
14.0	0.0	0.0	0.0	0.0	512.0	-0.564	0.123	
15.0	0.0	0.0	0.0	0.0	512.0	-0.564	0.141	
0.0	0.0	0.0	0.0	0.0	514.0	-0.564	0.144	
1.0	0.0	0.0	0.0	0.0	514.0	-0.561	0.097	
2.0	0.0	0.0	0.0	0.0	515.0	-0.561	0.073	
3.0	0.0	0.0	0.0	0.0	515.0	-0.558	0.056	
4.0	0.0	0.0	0.0	0.0	514.0	-0.558	0.044	
5.0	0.0	0.0	0.0	0.0	514.0	-0.558	0.07	
6.0	0.0	0.0	0.0	0.0	513.0	-0.558	0.05	
7.0	0.0	0.0	0.0	0.0	510.0	-0.561	0.021	
8.0	0.0	0.0	0.0	0.0	510.0	-0.567	0.056	
9.0	0.0	0.0	0.0	0.0	510.0	-0.57	0.041	
10.0	0.0	0.0	0.0	0.0	508.0	-0.574	0.009	
11.0	0.0	0.0	0.0	0.0	507.0	-0.577	-0.026	
12.0	0.0	0.0	0.0	0.0	508.0	-0.574	-0.041	
13.0	0.0	0.0	0.0	0.0	507.0	-0.57	-0.085	
14.0	0.0	0.0	0.0	0.0	508.0	-0.567	-0.07	
15.0	0.0	0.0	0.0	0.0	507.0	-0.561	-0.003	
0.0	0.0	0.0	0.0	0.0	506.0	-0.558	0.012	
1.0	0.0	0.0	0.0	0.0	505.0	-0.554	0.035	
2.0	0.0	0.0	0.0	0.0	504.0	-0.554	0.021	
3.0	0.0	0.0	0.0	0.0	503.0	-0.554	-0.003	
4.0	0.0	0.0	0.0	0.0	503.0	-0.558	-0.161	
5.0	0.0	0.0	0.0	0.0	503.0	-0.558	-0.205	
6.0	0.0	0.0	0.0	0.0	503.0	-0.558	-0.179	
7.0	0.0	0.0	0.0	0.0	503.0	-0.554	-0.123	
8.0	0.0	0.0	0.0	0.0	504.0	-0.551	-0.138	
9.0	0.0	0.0	0.0	0.0	505.0	-0.541	-0.188	
10.0	0.0	0.0	0.0	0.0	506.0	-0.538	-0.161	
11.0	0.0	0.0	0.0	0.0	506.0	-0.529	-0.17	
12.0	0.0	0.0	0.0	0.0	506.0	-0.522	-0.073	
13.0	0.0	0.0	0.0	0.0	508.0	-0.516	-0.021	
14.0	0.0	0.0	0.0	0.0	508.0	-0.506	-0.041	
15.0	0.0	0.0	0.0	0.0	508.0	-0.496	0.029	
0.0	0.0	0.0	0.0	0.0	507.0	-0.487	0.07	
1.0	0.0	0.0	0.0	0.0	509.0	-0.477	0.114	
2.0	0.0	0.0	0.0	0.0	509.0	-0.471	0.158	
3.0	0.0	0.0	0.0	0.0	508.0	-0.464	0.117	
4.0	0.0	0.0	0.0	0.0	507.0	-0.458	0.185	
5.0	0.0	0.0	0.0	0.0	506.0	-0.451	0.674	
6.0	0.0	0.0	0.0	0.0	506.0	-0.445	1.494	
7.0	0.0	0.0	0.0	0.0	504.0	-0.438	1.494	
8.0	0.0	0.0	0.0	0.0	503.0	-0.435	0.899	
9.0	0.0	0.0	0.0	0.0	504.0	-0.432	-0.079	
10.0	0.0	0.0	0.0	0.0	503.0	-0.432	-0.495	
11.0	0.0	0.0	0.0	0.0	504.0	-0.429	-0.565	
12.0	0.0	0.0	0.0	0.0	502.0	-0.422	-0.519	
13.0	0.0	0.0	0.0	0.0	501.0	-0.413	-0.504	
14.0	0.0	0.0	0.0	0.0	500.0	-0.403	-0.472	
15.0	0.0	0.0	0.0	0.0	496.0	-0.4	-0.407	
0.0	0.0	0.0	0.0	0.0	496.0	-0.4	-0.325	
1.0	0.0	0.0	0.0	0.0	497.0	-0.396	-0.234	
2.0	0.0	0.0	0.0	0.0	499.0	-0.4	-0.226	
3.0	0.0	0.0	0.0	0.0	499.0	-0.403	-0.167	
4.0	0.0	0.0	0.0	0.0	502.0	-0.406	-0.135	
5.0	0.0	0.0	0.0	0.0	504.0	-0.409	-0.085	
6.0	0.0	0.0	0.0	0.0	505.0	-0.413	-0.062	
7.0	0.0	0.0	0.0	0.0	506.0	-0.416	-0.05	
8.0	0.0	0.0	0.0	0.0	507.0	-0.416	-0.026	
9.0	0.0	0.0	0.0	0.0	505.0	-0.416	0.047	
10.0	0.0	0.0	0.0	0.0	504.0	-0.419	0.073	
11.0	0.0	0.0	0.0	0.0	502.0	-0.422	0.067	
12.0	0.0	0.0	0.0	0.0	502.0	-0.425	0.114	
13.0	0.0	0.0	0.0	0.0	501.0	-0.432	0.132	
14.0	0.0	0.0	0.0	0.0	501.0	-0.435	0.185	
15.0	0.0	0.0	0.0	0.0	500.0	-0.435	0.205	
0.0	0.0	0.0	0.0	0.0	502.0	-0.435	0.199	
1.0	0.0	0.0	0.0	0.0	504.0	-0.432	0.138	
2.0	0.0	0.0	0.0	0.0	507.0	-0.429	0.015	
3.0	0.0	0.0	0.0	0.0	509.0	-0.425	-0.138	
4.0	0.0	0.0	0.0	0.0	510.0	-0.425	-0.208	
5.0	0.0	0.0	0.0	0.0	510.0	-0.422	-0.296	
6.0	0.0	0.0	0.0	0.0	510.0	-0.419	-0.319	
7.0	0.0	0.0	0.0	0.0	510.0	-0.419	-0.284	
8.0	0.0	0.0	0.0	0.0	511.0	-0.419	-0.275	
9.0	0.0	0.0	0.0	0.0	513.0	-0.419	-0.246	
10.0	0.0	0.0	0.0	0.0	515.0	-0.419	-0.223	
11.0	0.0	0.0	0.0	0.0	516.0	-0.422	-0.19	
12.0	0.0	0.0	0.0	0.0	517.0	-0.422	-0.188	
13.0	0.0	0.0	0.0	0.0	518.0	-0.422	-0.152	
14.0	0.0	0.0	0.0	0.0	519.0	-0.425	-0.094	
15.0	0.0	0.0	0.0	0.0	520.0	-0.422	-0.103	
0.0	0.0	0.0	0.0	0.0	521.0	-0.419	-0.105	
1.0	0.0	0.0	0.0	0.0	521.0	-0.416	-0.05	
2.0	0.0	0.0	0.0	0.0	520.0	-0.409	-0.038	
3.0	0.0	0.0	0.0	0.0	519.0	-0.403	-0.012	
4.0	0.0	0.0	0.0	0.0	521.0	-0.4	-0.026	
5.0	0.0	0.0	0.0	0.0	522.0	-0.393	-0.038	
6.0	0.0	0.0	0.0	0.0	524.0	-0.39	0.023	
7.0	0.0	0.0	0.0	0.0	523.0	-0.383	0.026	
8.0	0.0	0.0	0.0	0.0	523.0	-0.383	0.023	
9.0	0.0	0.0	0.0	0.0	522.0	-0.383	-0.009	
10.0	0.0	0.0	0.0	0.0	520.0	-0.38	0.062	
11.0	0.0	0.0	0.0	0.0	521.0	-0.383	0.053	
12.0	0.0	0.0	0.0	0.0	521.0	-0.38	0.047	
13.0	0.0	0.0	0.0	0.0	521.0	-0.38	0.041	
14.0	0.0	0.0	0.0	0.0	522.0	-0.377	0.018	
15.0	0.0	0.0	0.0	0.0	521.0	-0.377	0.018	
0.0	0.0	0.0	0.0	0.0	521.0	-0.377	0.0	
1.0	0.0	0.0	0.0	0.0	521.0	-0.374	0.021	
2.0	0.0	0.0	0.0	0.0	521.0	-0.374	0.012	
3.0	0.0	0.0	0.0	0.0	520.0	-0.371	0.015	
4.0	0.0	0.0	0.0	0.0	520.0	-0.367	0.023	
5.0	0.0	0.0	0.0	0.0	519.0	-0.364	-0.015	
6.0	0.0	0.0	0.0	0.0	518.0	-0.361	0.026	
7.0	0.0	0.0	0.0	0.0	518.0	-0.361	0.041	
8.0	0.0	0.0	0.0	0.0	517.0	-0.358	0.021	
9.0	0.0	0.0	0.0	0.0	517.0	-0.358	-0.012	
10.0	0.0	0.0	0.0	0.0	518.0	-0.358	0.0	
11.0	0.0	0.0	0.0	0.0	517.0	-0.358	-0.009	
12.0	0.0	0.0	0.0	0.0	519.0	-0.358	0.015	
13.0	0.0	0.0	0.0	0.0	519.0	-0.358	0.021	
14.0	0.0	0.0	0.0	0.0	516.0	-0.358	0.006	
15.0	0.0	0.0	0.0	0.0	514.0	-0.354	0.026	
0.0	0.0	0.0	0.0	0.0	515.0	-0.358	-0.015	
1.0	0.0	0.0	0.0	0.0	515.0	-0.354	0.053	
2.0	0.0	0.0	0.0	0.0	515.0	-0.354	0.038	
3.0	0.0	0.0	0.0	0.0	516.0	-0.351	0.003	
4.0	0.0	0.0	0.0	0.0	515.0	-0.351	0.012	
5.0	0.0	0.0	0.0	0.0	515.0	-0.348	0.023	
6.0	0.0	0.0	0.0	0.0	515.0	-0.345	0.023	
7.0	0.0	0.0	0.0	0.0	515.0	-0.345	0.003	
8.0	0.0	0.0	0.0	0.0	515.0	-0.342	0.035	
9.0	0.0	0.0	0.0	0.0	516.0	-0.342	0.05	
10.0	0.0	0.0	0.0	0.0	517.0	-0.342	0.038	
11.0	0.0	0.0	0.0	0.0	517.0	-0.342	0.035	
12.0	0.0	0.0	0.0	0.0	516.0	-0.342	0.015	
13.0	0.0	0.0	0.0	0.0	515.0	-0.335	-0.003	
14.0	0.0	0.0	0.0	0.0	513.0	-0.335	0.009	
15.0	0.0	0.0	0.0	0.0	512.0	-0.332	0.067	
0.0	0.0	0.0	0.0	0.0	511.0	-0.332	0.041	
1.0	0.0	0.0	0.0	0.0	511.0	-0.329	0.123	
2.0	0.0	0.0	0.0	0.0	511.0	-0.325	0.038	
3.0	0.0	0.0	0.0	0.0	511.0	-0.325	0.05	
4.0	0.0	0.0	0.0	0.0	508.0	-0.322	0.015	
5.0	0.0	0.0	0.0	0.0	508.0	-0.322	-0.021	
6.0	0.0	0.0	0.0	0.0	508.0	-0.322	-0.026	
7.0	0.0	0.0	0.0	0.0	510.0	-0.322	-0.07	
8.0	0.0	0.0	0.0	0.0	511.0	-0.322	-0.123	
