# OpenSignals Text File Format. Version 1
# {"84:BA:20:AE:BC:92": {"position": 0, "device": "bitalino_rev", "device name": "84:BA:20:AE:BC:92", "device connection": "BTH84:BA:20:AE:BC:92", "sampling rate": 100, "resolution": [4, 1, 1, 1, 1, 10, 10, 10], "firmware version": 1282, "comments": "", "keywords": "", "mode": 0, "sync interval": 2, "date": "2025-10-22", "time": "11:5:32.440", "channels": [2, 3, 4], "sensor": ["RAW", "RESPBIT", "ECGBIT"], "label": ["A2", "A3", "A4"], "column": ["nSeq", "I1", "I2", "O1", "O2", "A2", "A3", "A4"], "special": [{}, {}, {}], "digital IO": [0, 0, 1, 1], "convertedValues": 1}}
# EndOfHeader
0.0	0.0	0.0	0.0	0.0	600.0	-0.609	0.056	
1.0	0.0	0.0	0.0	0.0	599.0	-0.59	0.059	
2.0	0.0	0.0	0.0	0.0	597.0	-0.57	0.021	
3.0	0.0	0.0	0.0	0.0	593.0	-0.548	0.047	
4.0	0.0	0.0	0.0	0.0	588.0	-0.529	0.018	
5.0	0.0	0.0	0.0	0.0	584.0	-0.506	0.006	
6.0	0.0	0.0	0.0	0.0	577.0	-0.487	-0.006	
7.0	0.0	0.0	0.0	0.0	570.0	-0.464	0.021	
8.0	0.0	0.0	0.0	0.0	564.0	-0.445	0.015	
9.0	0.0	0.0	0.0	0.0	558.0	-0.425	0.006	
10.0	0.0	0.0	0.0	0.0	553.0	-0.409	0.012	
11.0	0.0	0.0	0.0	0.0	549.0	-0.393	-0.015	
12.0	0.0	0.0	0.0	0.0	545.0	-0.377	0.021	
13.0	0.0	0.0	0.0	0.0	541.0	-0.367	0.026	
14.0	0.0	0.0	0.0	0.0	539.0	-0.354	0.018	
15.0	0.0	0.0	0.0	0.0	538.0	-0.345	0.044	
0.0	0.0	0.0	0.0	0.0	539.0	-0.332	0.023	
1.0	0.0	0.0	0.0	0.0	540.0	-0.322	0.0	
2.0	0.0	0.0	0.0	0.0	540.0	-0.313	0.018	
3.0	0.0	0.0	0.0	0.0	542.0	-0.306	0.023	
4.0	0.0	0.0	0.0	0.0	542.0	-0.296	0.018	
5.0	0.0	0.0	0.0	0.0	543.0	-0.29	0.0	
6.0	0.0	0.0	0.0	0.0	543.0	-0.284	-0.015	
7.0	0.0	0.0	0.0	0.0	543.0	-0.274	-0.015	
8.0	0.0	0.0	0.0	0.0	544.0	-0.271	-0.015	
9.0	0.0	0.0	0.0	0.0	545.0	-0.264	-0.012	
10.0	0.0	0.0	0.0	0.0	546.0	-0.258	-0.023	
11.0	0.0	0.0	0.0	0.0	548.0	-0.255	0.023	
12.0	0.0	0.0	0.0	0.0	548.0	-0.248	0.012	
13.0	0.0	0.0	0.0	0.0	547.0	-0.245	0.044	
14.0	0.0	0.0	0.0	0.0	548.0	-0.238	0.035	
15.0	0.0	0.0	0.0	0.0	547.0	-0.232	0.021	
0.0	0.0	0.0	0.0	0.0	545.0	-0.232	0.018	
1.0	0.0	0.0	0.0	0.0	542.0	-0.229	0.021	
2.0	0.0	0.0	0.0	0.0	538.0	-0.222	0.003	
3.0	0.0	0.0	0.0	0.0	536.0	-0.219	0.006	
4.0	0.0	0.0	0.0	0.0	535.0	-0.216	0.032	
5.0	0.0	0.0	0.0	0.0	532.0	-0.213	0.009	
6.0	0.0	0.0	0.0	0.0	531.0	-0.209	0.012	
7.0	0.0	0.0	0.0	0.0	530.0	-0.206	0.026	
8.0	0.0	0.0	0.0	0.0	528.0	-0.203	0.018	
9.0	0.0	0.0	0.0	0.0	528.0	-0.203	0.041	
10.0	0.0	0.0	0.0	0.0	528.0	-0.2	0.032	
11.0	0.0	0.0	0.0	0.0	528.0	-0.2	0.056	
12.0	0.0	0.0	0.0	0.0	525.0	-0.2	0.062	
13.0	0.0	0.0	0.0	0.0	524.0	-0.2	0.032	
14.0	0.0	0.0	0.0	0.0	522.0	-0.2	0.023	
15.0	0.0	0.0	0.0	0.0	520.0	-0.203	0.059	
0.0	0.0	0.0	0.0	0.0	517.0	-0.206	0.021	
1.0	0.0	0.0	0.0	0.0	512.0	-0.213	0.038	
2.0	0.0	0.0	0.0	0.0	508.0	-0.216	0.018	
3.0	0.0	0.0	0.0	0.0	506.0	-0.219	0.026	
4.0	0.0	0.0	0.0	0.0	504.0	-0.222	-0.003	
5.0	0.0	0.0	0.0	0.0	500.0	-0.229	0.015	
6.0	0.0	0.0	0.0	0.0	497.0	-0.232	0.018	
7.0	0.0	0.0	0.0	0.0	494.0	-0.235	0.012	
8.0	0.0	0.0	0.0	0.0	492.0	-0.242	-0.006	
9.0	0.0	0.0	0.0	0.0	490.0	-0.245	-0.003	
10.0	0.0	0.0	0.0	0.0	487.0	-0.251	0.082	
11.0	0.0	0.0	0.0	0.0	484.0	-0.258	0.12	
12.0	0.0	0.0	0.0	0.0	483.0	-0.261	0.155	
13.0	0.0	0.0	0.0	0.0	483.0	-0.271	0.041	
14.0	0.0	0.0	0.0	0.0	484.0	-0.277	-0.062	
15.0	0.0	0.0	0.0	0.0	485.0	-0.287	-0.108	
0.0	0.0	0.0	0.0	0.0	486.0	-0.296	-0.173	
1.0	0.0	0.0	0.0	0.0	486.0	-0.306	-0.158	
2.0	0.0	0.0	0.0	0.0	487.0	-0.316	-0.129	
3.0	0.0	0.0	0.0	0.0	488.0	-0.325	-0.117	
4.0	0.0	0.0	0.0	0.0	487.0	-0.338	-0.135	
5.0	0.0	0.0	0.0	0.0	486.0	-0.351	-0.05	
6.0	0.0	0.0	0.0	0.0	484.0	-0.361	-0.117	
7.0	0.0	0.0	0.0	0.0	483.0	-0.374	0.331	
8.0	0.0	0.0	0.0	0.0	484.0	-0.387	0.7	
9.0	0.0	0.0	0.0	0.0	484.0	-0.396	0.478	
10.0	0.0	0.0	0.0	0.0	484.0	-0.409	0.038	
11.0	0.0	0.0	0.0	0.0	484.0	-0.419	-0.108	
12.0	0.0	0.0	0.0	0.0	483.0	-0.429	-0.211	
13.0	0.0	0.0	0.0	0.0	481.0	-0.438	-0.202	
14.0	0.0	0.0	0.0	0.0	479.0	-0.454	-0.205	
15.0	0.0	0.0	0.0	0.0	477.0	-0.464	-0.202	
0.0	0.0	0.0	0.0	0.0	472.0	-0.477	-0.149	
1.0	0.0	0.0	0.0	0.0	471.0	-0.493	-0.129	
2.0	0.0	0.0	0.0	0.0	470.0	-0.509	-0.123	
3.0	0.0	0.0	0.0	0.0	471.0	-0.525	-0.135	
4.0	0.0	0.0	0.0	0.0	471.0	-0.541	-0.082	
5.0	0.0	0.0	0.0	0.0	473.0	-0.558	-0.047	
6.0	0.0	0.0	0.0	0.0	473.0	-0.577	-0.047	
7.0	0.0	0.0	0.0	0.0	472.0	-0.593	-0.012	
8.0	0.0	0.0	0.0	0.0	472.0	-0.609	0.003	
9.0	0.0	0.0	0.0	0.0	472.0	-0.625	0.0	
10.0	0.0	0.0	0.0	0.0	470.0	-0.638	0.018	
11.0	0.0	0.0	0.0	0.0	470.0	-0.654	0.018	
12.0	0.0	0.0	0.0	0.0	470.0	-0.67	0.029	
13.0	0.0	0.0	0.0	0.0	470.0	-0.686	0.05	
14.0	0.0	0.0	0.0	0.0	470.0	-0.703	0.044	
15.0	0.0	0.0	0.0	0.0	469.0	-0.712	0.029	
0.0	0.0	0.0	0.0	0.0	467.0	-0.732	0.023	
1.0	0.0	0.0	0.0	0.0	465.0	-0.744	0.009	
2.0	0.0	0.0	0.0	0.0	465.0	-0.761	0.041	
3.0	0.0	0.0	0.0	0.0	466.0	-0.777	0.023	
4.0	0.0	0.0	0.0	0.0	471.0	-0.786	0.026	
5.0	0.0	0.0	0.0	0.0	477.0	-0.802	0.064	
6.0	0.0	0.0	0.0	0.0	483.0	-0.812	0.053	
7.0	0.0	0.0	0.0	0.0	492.0	-0.825	-0.003	
8.0	0.0	0.0	0.0	0.0	503.0	-0.838	-0.038	
9.0	0.0	0.0	0.0	0.0	513.0	-0.851	-0.062	
10.0	0.0	0.0	0.0	0.0	523.0	-0.857	-0.123	
11.0	0.0	0.0	0.0	0.0	532.0	-0.87	-0.231	
12.0	0.0	0.0	0.0	0.0	540.0	-0.877	-0.237	
13.0	0.0	0.0	0.0	0.0	547.0	-0.886	-0.231	
14.0	0.0	0.0	0.0	0.0	553.0	-0.899	-0.246	
15.0	0.0	0.0	0.0	0.0	558.0	-0.902	-0.252	
0.0	0.0	0.0	0.0	0.0	560.0	-0.909	-0.205	
1.0	0.0	0.0	0.0	0.0	561.0	-0.915	-0.199	
2.0	0.0	0.0	0.0	0.0	563.0	-0.922	-0.179	
3.0	0.0	0.0	0.0	0.0	564.0	-0.928	-0.176	
4.0	0.0	0.0	0.0	0.0	565.0	-0.931	-0.144	
5.0	0.0	0.0	0.0	0.0	568.0	-0.928	-0.103	
6.0	0.0	0.0	0.0	0.0	571.0	-0.928	-0.126	
7.0	0.0	0.0	0.0	0.0	575.0	-0.925	-0.097	
8.0	0.0	0.0	0.0	0.0	577.0	-0.922	-0.085	
9.0	0.0	0.0	0.0	0.0	582.0	-0.912	-0.088	
10.0	0.0	0.0	0.0	0.0	586.0	-0.902	-0.041	
11.0	0.0	0.0	0.0	0.0	590.0	-0.889	0.015	
12.0	0.0	0.0	0.0	0.0	593.0	-0.873	-0.021	
13.0	0.0	0.0	0.0	0.0	596.0	-0.857	-0.041	
14.0	0.0	0.0	0.0	0.0	600.0	-0.831	-0.006	
15.0	0.0	0.0	0.0	0.0	602.0	-0.815	0.021	
0.0	0.0	0.0	0.0	0.0	600.0	-0.786	-0.006	
1.0	0.0	0.0	0.0	0.0	599.0	-0.757	0.012	
2.0	0.0	0.0	0.0	0.0	593.0	-0.732	0.012	
3.0	0.0	0.0	0.0	0.0	590.0	-0.706	0.012	
4.0	0.0	0.0	0.0	0.0	586.0	-0.677	0.018	
5.0	0.0	0.0	0.0	0.0	581.0	-0.638	0.029	
6.0	0.0	0.0	0.0	0.0	574.0	-0.603	0.0	
7.0	0.0	0.0	0.0	0.0	568.0	-0.558	0.006	
8.0	0.0	0.0	0.0	0.0	564.0	-0.509	-0.003	
9.0	0.0	0.0	0.0	0.0	559.0	-0.454	0.003	
10.0	0.0	0.0	0.0	0.0	556.0	-0.393	-0.018	
11.0	0.0	0.0	0.0	0.0	552.0	-0.332	-0.032	
12.0	0.0	0.0	0.0	0.0	551.0	-0.267	-0.015	
13.0	0.0	0.0	0.0	0.0	550.0	-0.203	-0.053	
14.0	0.0	0.0	0.0	0.0	549.0	-0.142	-0.023	
15.0	0.0	0.0	0.0	0.0	548.0	-0.084	-0.023	
0.0	0.0	0.0	0.0	0.0	547.0	-0.026	0.018	
1.0	0.0	0.0	0.0	0.0	548.0	0.035	0.062	
2.0	0.0	0.0	0.0	0.0	548.0	0.093	0.006	
3.0	0.0	0.0	0.0	0.0	548.0	0.155	0.056	
4.0	0.0	0.0	0.0	0.0	547.0	0.216	0.023	
5.0	0.0	0.0	0.0	0.0	548.0	0.271	0.018	
6.0	0.0	0.0	0.0	0.0	548.0	0.322	0.035	
7.0	0.0	0.0	0.0	0.0	547.0	0.374	0.053	
8.0	0.0	0.0	0.0	0.0	546.0	0.422	0.029	
9.0	0.0	0.0	0.0	0.0	546.0	0.464	0.047	
10.0	0.0	0.0	0.0	0.0	544.0	0.509	0.009	
11.0	0.0	0.0	0.0	0.0	541.0	0.545	0.018	
12.0	0.0	0.0	0.0	0.0	538.0	0.583	0.041	
13.0	0.0	0.0	0.0	0.0	536.0	0.616	0.047	
14.0	0.0	0.0	0.0	0.0	533.0	0.645	0.026	
15.0	0.0	0.0	0.0	0.0	529.0	0.674	0.056	
0.0	0.0	0.0	0.0	0.0	527.0	0.699	0.015	
1.0	0.0	0.0	0.0	0.0	525.0	0.722	0.006	
2.0	0.0	0.0	0.0	0.0	522.0	0.744	0.026	
3.0	0.0	0.0	0.0	0.0	520.0	0.77	0.044	
4.0	0.0	0.0	0.0	0.0	518.0	0.796	0.035	
5.0	0.0	0.0	0.0	0.0	515.0	0.819	0.032	
6.0	0.0	0.0	0.0	0.0	515.0	0.844	0.038	
7.0	0.0	0.0	0.0	0.0	513.0	0.87	0.053	
8.0	0.0	0.0	0.0	0.0	512.0	0.893	0.082	
9.0	0.0	0.0	0.0	0.0	510.0	0.915	0.067	
10.0	0.0	0.0	0.0	0.0	510.0	0.935	0.05	
11.0	0.0	0.0	0.0	0.0	509.0	0.954	0.059	
12.0	0.0	0.0	0.0	0.0	506.0	0.976	0.059	
13.0	0.0	0.0	0.0	0.0	504.0	0.989	0.076	
14.0	0.0	0.0	0.0	0.0	505.0	1.005	0.073	
15.0	0.0	0.0	0.0	0.0	504.0	1.018	0.064	
0.0	0.0	0.0	0.0	0.0	504.0	1.028	0.059	
1.0	0.0	0.0	0.0	0.0	502.0	1.034	0.05	
2.0	0.0	0.0	0.0	0.0	500.0	1.038	0.053	
3.0	0.0	0.0	0.0	0.0	499.0	1.041	0.067	
4.0	0.0	0.0	0.0	0.0	498.0	1.044	0.05	
5.0	0.0	0.0	0.0	0.0	497.0	1.044	0.053	
6.0	0.0	0.0	0.0	0.0	496.0	1.041	0.023	
7.0	0.0	0.0	0.0	0.0	495.0	1.038	0.05	
8.0	0.0	0.0	0.0	0.0	494.0	1.031	0.073	
9.0	0.0	0.0	0.0	0.0	494.0	1.025	0.091	
10.0	0.0	0.0	0.0	0.0	493.0	1.015	0.1	
11.0	0.0	0.0	0.0	0.0	492.0	1.002	0.179	
12.0	0.0	0.0	0.0	0.0	492.0	0.989	0.164	
13.0	0.0	0.0	0.0	0.0	492.0	0.976	0.185	
14.0	0.0	0.0	0.0	0.0	493.0	0.96	0.064	
15.0	0.0	0.0	0.0	0.0	493.0	0.947	0.006	
0.0	0.0	0.0	0.0	0.0	492.0	0.928	-0.029	
1.0	0.0	0.0	0.0	0.0	491.0	0.915	-0.044	
2.0	0.0	0.0	0.0	0.0	491.0	0.896	-0.012	
3.0	0.0	0.0	0.0	0.0	490.0	0.88	-0.026	
4.0	0.0	0.0	0.0	0.0	487.0	0.864	-0.006	
5.0	0.0	0.0	0.0	0.0	483.0	0.844	0.009	
6.0	0.0	0.0	0.0	0.0	481.0	0.828	-0.009	
7.0	0.0	0.0	0.0	0.0	480.0	0.815	0.299	
8.0	0.0	0.0	0.0	0.0	479.0	0.799	0.744	
9.0	0.0	0.0	0.0	0.0	478.0	0.786	0.665	
10.0	0.0	0.0	0.0	0.0	477.0	0.773	0.126	
11.0	0.0	0.0	0.0	0.0	477.0	0.764	-0.105	
12.0	0.0	0.0	0.0	0.0	475.0	0.754	-0.091	
13.0	0.0	0.0	0.0	0.0	473.0	0.744	-0.097	
14.0	0.0	0.0	0.0	0.0	473.0	0.735	-0.12	
15.0	0.0	0.0	0.0	0.0	473.0	0.725	-0.108	
0.0	0.0	0.0	0.0	0.0	473.0	0.719	-0.085	
1.0	0.0	0.0	0.0	0.0	472.0	0.706	-0.044	
2.0	0.0	0.0	0.0	0.0	473.0	0.693	-0.05	
3.0	0.0	0.0	0.0	0.0	472.0	0.68	-0.026	
4.0	0.0	0.0	0.0	0.0	471.0	0.667	-0.023	
5.0	0.0	0.0	0.0	0.0	470.0	0.651	0.012	
6.0	0.0	0.0	0.0	0.0	471.0	0.635	0.009	
7.0	0.0	0.0	0.0	0.0	470.0	0.619	0.012	
8.0	0.0	0.0	0.0	0.0	472.0	0.603	0.018	
9.0	0.0	0.0	0.0	0.0	474.0	0.587	0.059	
10.0	0.0	0.0	0.0	0.0	474.0	0.567	0.05	
11.0	0.0	0.0	0.0	0.0	475.0	0.551	0.044	
12.0	0.0	0.0	0.0	0.0	476.0	0.532	0.047	
13.0	0.0	0.0	0.0	0.0	478.0	0.512	0.026	
14.0	0.0	0.0	0.0	0.0	477.0	0.496	0.009	
15.0	0.0	0.0	0.0	0.0	474.0	0.474	0.021	
0.0	0.0	0.0	0.0	0.0	469.0	0.458	0.0	
1.0	0.0	0.0	0.0	0.0	465.0	0.438	-0.023	
2.0	0.0	0.0	0.0	0.0	464.0	0.422	0.012	
3.0	0.0	0.0	0.0	0.0	465.0	0.409	0.07	
4.0	0.0	0.0	0.0	0.0	467.0	0.393	0.056	
5.0	0.0	0.0	0.0	0.0	470.0	0.38	0.05	
6.0	0.0	0.0	0.0	0.0	476.0	0.364	0.047	
7.0	0.0	0.0	0.0	0.0	484.0	0.351	0.085	
8.0	0.0	0.0	0.0	0.0	491.0	0.342	0.044	
9.0	0.0	0.0	0.0	0.0	499.0	0.329	-0.018	
10.0	0.0	0.0	0.0	0.0	507.0	0.319	-0.038	
11.0	0.0	0.0	0.0	0.0	515.0	0.306	-0.12	
12.0	0.0	0.0	0.0	0.0	524.0	0.296	-0.173	
13.0	0.0	0.0	0.0	0.0	531.0	0.29	-0.196	
14.0	0.0	0.0	0.0	0.0	537.0	0.284	-0.237	
15.0	0.0	0.0	0.0	0.0	543.0	0.277	-0.161	
0.0	0.0	0.0	0.0	0.0	549.0	0.271	-0.179	
1.0	0.0	0.0	0.0	0.0	553.0	0.267	-0.158	
2.0	0.0	0.0	0.0	0.0	556.0	0.267	-0.135	
3.0	0.0	0.0	0.0	0.0	558.0	0.264	-0.117	
4.0	0.0	0.0	0.0	0.0	561.0	0.264	-0.105	
5.0	0.0	0.0	0.0	0.0	563.0	0.264	-0.082	
6.0	0.0	0.0	0.0	0.0	565.0	0.267	-0.085	
7.0	0.0	0.0	0.0	0.0	568.0	0.267	-0.056	
8.0	0.0	0.0	0.0	0.0	572.0	0.271	-0.079	
9.0	0.0	0.0	0.0	0.0	575.0	0.277	-0.032	
10.0	0.0	0.0	0.0	0.0	579.0	0.284	-0.021	
11.0	0.0	0.0	0.0	0.0	584.0	0.287	-0.006	
12.0	0.0	0.0	0.0	0.0	588.0	0.293	-0.018	
13.0	0.0	0.0	0.0	0.0	591.0	0.3	-0.009	
14.0	0.0	0.0	0.0	0.0	594.0	0.306	0.006	
15.0	0.0	0.0	0.0	0.0	596.0	0.309	0.012	
0.0	0.0	0.0	0.0	0.0	598.0	0.313	-0.012	
1.0	0.0	0.0	0.0	0.0	596.0	0.319	0.0	
2.0	0.0	0.0	0.0	0.0	593.0	0.322	-0.021	
3.0	0.0	0.0	0.0	0.0	591.0	0.329	-0.021	
4.0	0.0	0.0	0.0	0.0	588.0	0.332	-0.018	
5.0	0.0	0.0	0.0	0.0	583.0	0.342	-0.023	
6.0	0.0	0.0	0.0	0.0	578.0	0.348	-0.041	
7.0	0.0	0.0	0.0	0.0	573.0	0.351	-0.044	
8.0	0.0	0.0	0.0	0.0	568.0	0.358	-0.053	
9.0	0.0	0.0	0.0	0.0	563.0	0.364	-0.035	
10.0	0.0	0.0	0.0	0.0	560.0	0.371	-0.062	
11.0	0.0	0.0	0.0	0.0	558.0	0.38	-0.073	
12.0	0.0	0.0	0.0	0.0	555.0	0.387	-0.076	
13.0	0.0	0.0	0.0	0.0	554.0	0.393	-0.079	
14.0	0.0	0.0	0.0	0.0	553.0	0.4	-0.059	
15.0	0.0	0.0	0.0	0.0	552.0	0.409	-0.059	
0.0	0.0	0.0	0.0	0.0	550.0	0.416	-0.062	
1.0	0.0	0.0	0.0	0.0	550.0	0.422	-0.059	
2.0	0.0	0.0	0.0	0.0	547.0	0.429	-0.067	
3.0	0.0	0.0	0.0	0.0	546.0	0.435	-0.062	
4.0	0.0	0.0	0.0	0.0	544.0	0.438	-0.085	
5.0	0.0	0.0	0.0	0.0	542.0	0.445	-0.059	
6.0	0.0	0.0	0.0	0.0	539.0	0.448	-0.062	
7.0	0.0	0.0	0.0	0.0	537.0	0.451	-0.073	
8.0	0.0	0.0	0.0	0.0	536.0	0.454	-0.082	
9.0	0.0	0.0	0.0	0.0	534.0	0.458	-0.082	
10.0	0.0	0.0	0.0	0.0	532.0	0.461	-0.053	
11.0	0.0	0.0	0.0	0.0	532.0	0.461	-0.053	
12.0	0.0	0.0	0.0	0.0	532.0	0.461	-0.05	
13.0	0.0	0.0	0.0	0.0	531.0	0.461	-0.044	
14.0	0.0	0.0	0.0	0.0	531.0	0.458	-0.006	
15.0	0.0	0.0	0.0	0.0	530.0	0.458	-0.023	
0.0	0.0	0.0	0.0	0.0	527.0	0.454	-0.041	
1.0	0.0	0.0	0.0	0.0	526.0	0.451	-0.021	
2.0	0.0	0.0	0.0	0.0	524.0	0.445	-0.023	
3.0	0.0	0.0	0.0	0.0	522.0	0.438	-0.015	
4.0	0.0	0.0	0.0	0.0	518.0	0.435	-0.023	
5.0	0.0	0.0	0.0	0.0	516.0	0.429	-0.015	
6.0	0.0	0.0	0.0	0.0	516.0	0.422	-0.015	
7.0	0.0	0.0	0.0	0.0	515.0	0.419	-0.035	
8.0	0.0	0.0	0.0	0.0	513.0	0.413	-0.035	
9.0	0.0	0.0	0.0	0.0	510.0	0.409	-0.018	
10.0	0.0	0.0	0.0	0.0	507.0	0.406	-0.003	
11.0	0.0	0.0	0.0	0.0	505.0	0.403	-0.015	
12.0	0.0	0.0	0.0	0.0	502.0	0.403	-0.023	
13.0	0.0	0.0	0.0	0.0	497.0	0.4	-0.003	
14.0	0.0	0.0	0.0	0.0	494.0	0.4	-0.021	
15.0	0.0	0.0	0.0	0.0	492.0	0.4	-0.012	
0.0	0.0	0.0	0.0	0.0	488.0	0.4	-0.003	
1.0	0.0	0.0	0.0	0.0	484.0	0.4	-0.009	
2.0	0.0	0.0	0.0	0.0	483.0	0.4	-0.041	
3.0	0.0	0.0	0.0	0.0	483.0	0.4	-0.021	
4.0	0.0	0.0	0.0	0.0	483.0	0.403	-0.023	
5.0	0.0	0.0	0.0	0.0	481.0	0.406	-0.047	
6.0	0.0	0.0	0.0	0.0	481.0	0.409	-0.056	
7.0	0.0	0.0	0.0	0.0	482.0	0.413	-0.032	
8.0	0.0	0.0	0.0	0.0	479.0	0.413	-0.047	
9.0	0.0	0.0	0.0	0.0	476.0	0.416	-0.021	
10.0	0.0	0.0	0.0	0.0	476.0	0.419	0.003	
11.0	0.0	0.0	0.0	0.0	472.0	0.419	0.026	
12.0	0.0	0.0	0.0	0.0	472.0	0.422	0.085	
13.0	0.0	0.0	0.0	0.0	471.0	0.422	0.085	
14.0	0.0	0.0	0.0	0.0	470.0	0.422	0.076	
15.0	0.0	0.0	0.0	0.0	470.0	0.425	0.035	
0.0	0.0	0.0	0.0	0.0	469.0	0.425	-0.015	
1.0	0.0	0.0	0.0	0.0	470.0	0.425	-0.085	
2.0	0.0	0.0	0.0	0.0	468.0	0.425	-0.097	
3.0	0.0	0.0	0.0	0.0	468.0	0.425	-0.088	
4.0	0.0	0.0	0.0	0.0	466.0	0.429	-0.067	
5.0	0.0	0.0	0.0	0.0	465.0	0.429	-0.056	
6.0	0.0	0.0	0.0	0.0	464.0	0.429	-0.038	
7.0	0.0	0.0	0.0	0.0	464.0	0.429	-0.114	
8.0	0.0	0.0	0.0	0.0	462.0	0.429	0.05	
9.0	0.0	0.0	0.0	0.0	461.0	0.425	0.536	
10.0	0.0	0.0	0.0	0.0	461.0	0.425	0.712	
11.0	0.0	0.0	0.0	0.0	462.0	0.425	0.296	
12.0	0.0	0.0	0.0	0.0	462.0	0.425	-0.023	
13.0	0.0	0.0	0.0	0.0	461.0	0.422	-0.117	
14.0	0.0	0.0	0.0	0.0	463.0	0.422	-0.123	
15.0	0.0	0.0	0.0	0.0	463.0	0.422	-0.135	
0.0	0.0	0.0	0.0	0.0	464.0	0.422	-0.146	
1.0	0.0	0.0	0.0	0.0	462.0	0.422	-0.129	
2.0	0.0	0.0	0.0	0.0	462.0	0.419	-0.138	
3.0	0.0	0.0	0.0	0.0	461.0	0.416	-0.123	
4.0	0.0	0.0	0.0	0.0	459.0	0.416	-0.108	
5.0	0.0	0.0	0.0	0.0	457.0	0.413	-0.1	
6.0	0.0	0.0	0.0	0.0	454.0	0.409	-0.076	
7.0	0.0	0.0	0.0	0.0	451.0	0.406	-0.059	
8.0	0.0	0.0	0.0	0.0	450.0	0.403	-0.07	
9.0	0.0	0.0	0.0	0.0	448.0	0.4	-0.05	
10.0	0.0	0.0	0.0	0.0	446.0	0.393	-0.023	
11.0	0.0	0.0	0.0	0.0	445.0	0.387	-0.018	
12.0	0.0	0.0	0.0	0.0	444.0	0.38	-0.032	
13.0	0.0	0.0	0.0	0.0	444.0	0.371	-0.026	
14.0	0.0	0.0	0.0	0.0	443.0	0.364	0.012	
15.0	0.0	0.0	0.0	0.0	443.0	0.358	0.021	
0.0	0.0	0.0	0.0	0.0	445.0	0.348	-0.009	
1.0	0.0	0.0	0.0	0.0	443.0	0.342	0.006	
2.0	0.0	0.0	0.0	0.0	444.0	0.332	0.018	
3.0	0.0	0.0	0.0	0.0	445.0	0.325	0.018	
4.0	0.0	0.0	0.0	0.0	444.0	0.316	0.029	
5.0	0.0	0.0	0.0	0.0	444.0	0.306	0.044	
6.0	0.0	0.0	0.0	0.0	444.0	0.296	0.023	
7.0	0.0	0.0	0.0	0.0	448.0	0.284	0.035	
8.0	0.0	0.0	0.0	0.0	454.0	0.271	0.035	
9.0	0.0	0.0	0.0	0.0	462.0	0.261	0.023	
10.0	0.0	0.0	0.0	0.0	470.0	0.248	0.012	
11.0	0.0	0.0	0.0	0.0	480.0	0.238	-0.056	
12.0	0.0	0.0	0.0	0.0	489.0	0.226	-0.132	
13.0	0.0	0.0	0.0	0.0	498.0	0.216	-0.188	
14.0	0.0	0.0	0.0	0.0	506.0	0.203	-0.243	
15.0	0.0	0.0	0.0	0.0	515.0	0.19	-0.27	
0.0	0.0	0.0	0.0	0.0	522.0	0.18	-0.229	
1.0	0.0	0.0	0.0	0.0	527.0	0.168	-0.217	
2.0	0.0	0.0	0.0	0.0	532.0	0.155	-0.214	
3.0	0.0	0.0	0.0	0.0	536.0	0.142	-0.199	
4.0	0.0	0.0	0.0	0.0	538.0	0.129	-0.193	
5.0	0.0	0.0	0.0	0.0	537.0	0.116	-0.179	
6.0	0.0	0.0	0.0	0.0	538.0	0.103	-0.155	
7.0	0.0	0.0	0.0	0.0	538.0	0.09	-0.138	
8.0	0.0	0.0	0.0	0.0	540.0	0.077	-0.117	
9.0	0.0	0.0	0.0	0.0	541.0	0.064	-0.108	
10.0	0.0	0.0	0.0	0.0	544.0	0.052	-0.085	
11.0	0.0	0.0	0.0	0.0	550.0	0.039	-0.05	
12.0	0.0	0.0	0.0	0.0	554.0	0.026	-0.059	
13.0	0.0	0.0	0.0	0.0	559.0	0.013	-0.035	
14.0	0.0	0.0	0.0	0.0	563.0	0.0	-0.044	
15.0	0.0	0.0	0.0	0.0	568.0	-0.013	-0.012	
0.0	0.0	0.0	0.0	0.0	571.0	-0.026	-0.029	
1.0	0.0	0.0	0.0	0.0	572.0	-0.042	-0.012	
2.0	0.0	0.0	0.0	0.0	574.0	-0.058	0.038	
3.0	0.0	0.0	0.0	0.0	572.0	-0.071	0.047	
4.0	0.0	0.0	0.0	0.0	569.0	-0.087	0.064	
5.0	0.0	0.0	0.0	0.0	565.0	-0.103	0.108	
6.0	0.0	0.0	0.0	0.0	561.0	-0.116	0.111	
7.0	0.0	0.0	0.0	0.0	555.0	-0.132	0.108	
8.0	0.0	0.0	0.0	0.0	550.0	-0.145	0.103	
9.0	0.0	0.0	0.0	0.0	547.0	-0.161	0.108	
10.0	0.0	0.0	0.0	0.0	542.0	-0.177	0.105	
11.0	0.0	0.0	0.0	0.0	539.0	-0.19	0.117	
12.0	0.0	0.0	0.0	0.0	538.0	-0.203	0.073	
13.0	0.0	0.0	0.0	0.0	538.0	-0.216	0.021	
14.0	0.0	0.0	0.0	0.0	537.0	-0.232	0.003	
15.0	0.0	0.0	0.0	0.0	537.0	-0.245	-0.003	
0.0	0.0	0.0	0.0	0.0	536.0	-0.258	-0.023	
1.0	0.0	0.0	0.0	0.0	533.0	-0.267	-0.006	
2.0	0.0	0.0	0.0	0.0	531.0	-0.28	-0.006	
3.0	0.0	0.0	0.0	0.0	531.0	-0.29	0.009	
4.0	0.0	0.0	0.0	0.0	529.0	-0.3	0.0	
5.0	0.0	0.0	0.0	0.0	529.0	-0.309	0.021	
6.0	0.0	0.0	0.0	0.0	526.0	-0.319	0.009	
7.0	0.0	0.0	0.0	0.0	526.0	-0.325	0.012	
8.0	0.0	0.0	0.0	0.0	524.0	-0.335	0.012	
9.0	0.0	0.0	0.0	0.0	521.0	-0.345	0.029	
10.0	0.0	0.0	0.0	0.0	520.0	-0.354	0.018	
11.0	0.0	0.0	0.0	0.0	518.0	-0.361	0.018	
12.0	0.0	0.0	0.0	0.0	517.0	-0.367	0.041	
13.0	0.0	0.0	0.0	0.0	515.0	-0.374	0.023	
14.0	0.0	0.0	0.0	0.0	511.0	-0.383	0.026	
15.0	0.0	0.0	0.0	0.0	509.0	-0.39	0.023	
0.0	0.0	0.0	0.0	0.0	506.0	-0.396	0.035	
1.0	0.0	0.0	0.0	0.0	503.0	-0.403	0.032	
2.0	0.0	0.0	0.0	0.0	500.0	-0.413	0.018	
3.0	0.0	0.0	0.0	0.0	497.0	-0.419	0.015	
4.0	0.0	0.0	0.0	0.0	495.0	-0.429	0.044	
5.0	0.0	0.0	0.0	0.0	493.0	-0.435	0.012	
6.0	0.0	0.0	0.0	0.0	491.0	-0.445	0.021	
7.0	0.0	0.0	0.0	0.0	487.0	-0.454	0.021	
8.0	0.0	0.0	0.0	0.0	485.0	-0.464	0.026	
9.0	0.0	0.0	0.0	0.0	483.0	-0.471	0.032	
10.0	0.0	0.0	0.0	0.0	483.0	-0.48	0.032	
11.0	0.0	0.0	0.0	0.0	483.0	-0.487	0.05	
12.0	0.0	0.0	0.0	0.0	483.0	-0.496	0.041	
13.0	0.0	0.0	0.0	0.0	482.0	-0.506	0.026	
14.0	0.0	0.0	0.0	0.0	481.0	-0.512	-0.006	
15.0	0.0	0.0	0.0	0.0	483.0	-0.519	-0.003	
0.0	0.0	0.0	0.0	0.0	483.0	-0.525	0.0	
1.0	0.0	0.0	0.0	0.0	483.0	-0.532	-0.003	
2.0	0.0	0.0	0.0	0.0	483.0	-0.535	0.012	
3.0	0.0	0.0	0.0	0.0	483.0	-0.541	0.009	
4.0	0.0	0.0	0.0	0.0	482.0	-0.545	-0.006	
5.0	0.0	0.0	0.0	0.0	481.0	-0.551	0.012	
6.0	0.0	0.0	0.0	0.0	480.0	-0.554	0.003	
7.0	0.0	0.0	0.0	0.0	479.0	-0.554	0.021	
8.0	0.0	0.0	0.0	0.0	475.0	-0.558	-0.006	
9.0	0.0	0.0	0.0	0.0	473.0	-0.558	0.018	
10.0	0.0	0.0	0.0	0.0	472.0	-0.561	0.029	
11.0	0.0	0.0	0.0	0.0	470.0	-0.558	0.026	
12.0	0.0	0.0	0.0	0.0	465.0	-0.558	0.07	
13.0	0.0	0.0	0.0	0.0	463.0	-0.558	0.114	
14.0	0.0	0.0	0.0	0.0	462.0	-0.558	0.12	
15.0	0.0	0.0	0.0	0.0	463.0	-0.558	0.141	
0.0	0.0	0.0	0.0	0.0	463.0	-0.558	0.029	
1.0	0.0	0.0	0.0	0.0	462.0	-0.558	-0.006	
2.0	0.0	0.0	0.0	0.0	462.0	-0.558	-0.038	
3.0	0.0	0.0	0.0	0.0	461.0	-0.561	-0.035	
4.0	0.0	0.0	0.0	0.0	461.0	-0.564	-0.021	
5.0	0.0	0.0	0.0	0.0	460.0	-0.564	-0.009	
6.0	0.0	0.0	0.0	0.0	460.0	-0.567	-0.015	
7.0	0.0	0.0	0.0	0.0	461.0	-0.57	-0.015	
8.0	0.0	0.0	0.0	0.0	461.0	-0.57	-0.012	
9.0	0.0	0.0	0.0	0.0	459.0	-0.574	0.346	
10.0	0.0	0.0	0.0	0.0	459.0	-0.577	0.735	
11.0	0.0	0.0	0.0	0.0	457.0	-0.58	0.557	
12.0	0.0	0.0	0.0	0.0	456.0	-0.583	-0.003	
13.0	0.0	0.0	0.0	0.0	455.0	-0.583	-0.144	
14.0	0.0	0.0	0.0	0.0	455.0	-0.587	-0.173	
15.0	0.0	0.0	0.0	0.0	458.0	-0.59	-0.158	
0.0	0.0	0.0	0.0	0.0	460.0	-0.593	-0.188	
1.0	0.0	0.0	0.0	0.0	462.0	-0.596	-0.152	
2.0	0.0	0.0	0.0	0.0	462.0	-0.599	-0.146	
3.0	0.0	0.0	0.0	0.0	462.0	-0.606	-0.144	
4.0	0.0	0.0	0.0	0.0	463.0	-0.612	-0.117	
5.0	0.0	0.0	0.0	0.0	462.0	-0.616	-0.108	
6.0	0.0	0.0	0.0	0.0	463.0	-0.622	-0.073	
7.0	0.0	0.0	0.0	0.0	464.0	-0.625	-0.085	
8.0	0.0	0.0	0.0	0.0	463.0	-0.625	-0.073	
9.0	0.0	0.0	0.0	0.0	462.0	-0.632	-0.044	
10.0	0.0	0.0	0.0	0.0	461.0	-0.635	-0.05	
11.0	0.0	0.0	0.0	0.0	459.0	-0.638	-0.032	
12.0	0.0	0.0	0.0	0.0	456.0	-0.645	-0.021	
13.0	0.0	0.0	0.0	0.0	455.0	-0.648	0.018	
14.0	0.0	0.0	0.0	0.0	455.0	-0.648	0.029	
15.0	0.0	0.0	0.0	0.0	453.0	-0.651	0.062	
0.0	0.0	0.0	0.0	0.0	452.0	-0.657	0.053	
1.0	0.0	0.0	0.0	0.0	451.0	-0.661	0.088	
2.0	0.0	0.0	0.0	0.0	451.0	-0.661	0.094	
3.0	0.0	0.0	0.0	0.0	451.0	-0.664	0.07	
4.0	0.0	0.0	0.0	0.0	453.0	-0.667	0.135	
5.0	0.0	0.0	0.0	0.0	453.0	-0.667	0.126	
6.0	0.0	0.0	0.0	0.0	455.0	-0.674	0.135	
7.0	0.0	0.0	0.0	0.0	459.0	-0.674	0.126	
8.0	0.0	0.0	0.0	0.0	462.0	-0.677	0.138	
9.0	0.0	0.0	0.0	0.0	467.0	-0.68	0.126	
10.0	0.0	0.0	0.0	0.0	473.0	-0.68	0.111	
11.0	0.0	0.0	0.0	0.0	480.0	-0.677	0.073	
12.0	0.0	0.0	0.0	0.0	489.0	-0.677	-0.018	
13.0	0.0	0.0	0.0	0.0	497.0	-0.677	-0.05	
14.0	0.0	0.0	0.0	0.0	506.0	-0.674	-0.126	
15.0	0.0	0.0	0.0	0.0	513.0	-0.667	-0.193	
0.0	0.0	0.0	0.0	0.0	519.0	-0.667	-0.173	
1.0	0.0	0.0	0.0	0.0	524.0	-0.661	-0.138	
2.0	0.0	0.0	0.0	0.0	527.0	-0.657	-0.146	
3.0	0.0	0.0	0.0	0.0	530.0	-0.648	-0.12	
4.0	0.0	0.0	0.0	0.0	534.0	-0.641	-0.108	
5.0	0.0	0.0	0.0	0.0	537.0	-0.635	-0.105	
6.0	0.0	0.0	0.0	0.0	538.0	-0.628	-0.079	
7.0	0.0	0.0	0.0	0.0	539.0	-0.622	-0.067	
8.0	0.0	0.0	0.0	0.0	542.0	-0.616	-0.032	
9.0	0.0	0.0	0.0	0.0	545.0	-0.609	-0.003	
10.0	0.0	0.0	0.0	0.0	548.0	-0.603	-0.009	
11.0	0.0	0.0	0.0	0.0	553.0	-0.596	0.047	
12.0	0.0	0.0	0.0	0.0	557.0	-0.59	0.044	
13.0	0.0	0.0	0.0	0.0	560.0	-0.58	0.05	
14.0	0.0	0.0	0.0	0.0	563.0	-0.574	0.056	
15.0	0.0	0.0	0.0	0.0	566.0	-0.564	0.079	
0.0	0.0	0.0	0.0	0.0	568.0	-0.558	0.053	
1.0	0.0	0.0	0.0	0.0	568.0	-0.551	0.07	
2.0	0.0	0.0	0.0	0.0	568.0	-0.545	0.053	
3.0	0.0	0.0	0.0	0.0	566.0	-0.538	0.059	
4.0	0.0	0.0	0.0	0.0	563.0	-0.529	0.047	
5.0	0.0	0.0	0.0	0.0	559.0	-0.522	0.047	
6.0	0.0	0.0	0.0	0.0	556.0	-0.512	0.026	
7.0	0.0	0.0	0.0	0.0	551.0	-0.506	0.018	
8.0	0.0	0.0	0.0	0.0	548.0	-0.5	-0.003	
9.0	0.0	0.0	0.0	0.0	544.0	-0.493	0.026	
10.0	0.0	0.0	0.0	0.0	541.0	-0.49	-0.012	
11.0	0.0	0.0	0.0	0.0	537.0	-0.483	-0.012	
12.0	0.0	0.0	0.0	0.0	535.0	-0.477	0.003	
13.0	0.0	0.0	0.0	0.0	531.0	-0.477	0.003	
14.0	0.0	0.0	0.0	0.0	531.0	-0.471	-0.012	
15.0	0.0	0.0	0.0	0.0	529.0	-0.467	0.006	
0.0	0.0	0.0	0.0	0.0	527.0	-0.464	0.018	
1.0	0.0	0.0	0.0	0.0	525.0	-0.461	0.012	
2.0	0.0	0.0	0.0	0.0	522.0	-0.458	-0.006	
3.0	0.0	0.0	0.0	0.0	521.0	-0.454	-0.012	
4.0	0.0	0.0	0.0	0.0	521.0	-0.451	-0.003	
5.0	0.0	0.0	0.0	0.0	520.0	-0.448	0.0	
6.0	0.0	0.0	0.0	0.0	521.0	-0.448	0.003	
7.0	0.0	0.0	0.0	0.0	519.0	-0.442	0.009	
8.0	0.0	0.0	0.0	0.0	519.0	-0.438	0.021	
9.0	0.0	0.0	0.0	0.0	517.0	-0.438	0.015	
10.0	0.0	0.0	0.0	0.0	515.0	-0.435	0.018	
11.0	0.0	0.0	0.0	0.0	514.0	-0.432	0.009	
12.0	0.0	0.0	0.0	0.0	514.0	-0.429	0.015	
13.0	0.0	0.0	0.0	0.0	514.0	-0.429	0.021	
14.0	0.0	0.0	0.0	0.0	514.0	-0.425	0.009	
15.0	0.0	0.0	0.0	0.0	513.0	-0.425	0.026	
0.0	0.0	0.0	0.0	0.0	512.0	-0.425	0.032	
1.0	0.0	0.0	0.0	0.0	510.0	-0.425	0.044	
2.0	0.0	0.0	0.0	0.0	508.0	-0.425	0.035	
3.0	0.0	0.0	0.0	0.0	505.0	-0.429	0.035	
4.0	0.0	0.0	0.0	0.0	502.0	-0.429	0.044	
5.0	0.0	0.0	0.0	0.0	500.0	-0.429	0.05	
6.0	0.0	0.0	0.0	0.0	499.0	-0.432	0.026	
7.0	0.0	0.0	0.0	0.0	498.0	-0.435	0.032	
8.0	0.0	0.0	0.0	0.0	496.0	-0.438	0.003	
9.0	0.0	0.0	0.0	0.0	494.0	-0.442	0.009	
10.0	0.0	0.0	0.0	0.0	492.0	-0.448	-0.029	
11.0	0.0	0.0	0.0	0.0	491.0	-0.451	-0.035	
12.0	0.0	0.0	0.0	0.0	489.0	-0.454	-0.053	
13.0	0.0	0.0	0.0	0.0	486.0	-0.464	-0.026	
14.0	0.0	0.0	0.0	0.0	484.0	-0.467	-0.023	
15.0	0.0	0.0	0.0	0.0	484.0	-0.474	-0.026	
0.0	0.0	0.0	0.0	0.0	483.0	-0.477	-0.029	
1.0	0.0	0.0	0.0	0.0	483.0	-0.483	0.018	
2.0	0.0	0.0	0.0	0.0	482.0	-0.493	0.009	
3.0	0.0	0.0	0.0	0.0	483.0	-0.5	0.006	
4.0	0.0	0.0	0.0	0.0	482.0	-0.506	-0.009	
5.0	0.0	0.0	0.0	0.0	480.0	-0.512	0.0	
6.0	0.0	0.0	0.0	0.0	478.0	-0.522	0.0	
7.0	0.0	0.0	0.0	0.0	477.0	-0.532	0.009	
8.0	0.0	0.0	0.0	0.0	478.0	-0.538	-0.018	
9.0	0.0	0.0	0.0	0.0	477.0	-0.548	0.032	
10.0	0.0	0.0	0.0	0.0	476.0	-0.558	0.0	
11.0	0.0	0.0	0.0	0.0	476.0	-0.564	0.0	
12.0	0.0	0.0	0.0	0.0	475.0	-0.574	0.009	
13.0	0.0	0.0	0.0	0.0	473.0	-0.58	0.026	
14.0	0.0	0.0	0.0	0.0	471.0	-0.583	0.056	
15.0	0.0	0.0	0.0	0.0	472.0	-0.593	0.097	
0.0	0.0	0.0	0.0	0.0	472.0	-0.596	0.094	
1.0	0.0	0.0	0.0	0.0	473.0	-0.603	0.053	
2.0	0.0	0.0	0.0	0.0	472.0	-0.606	-0.035	
3.0	0.0	0.0	0.0	0.0	470.0	-0.609	-0.108	
4.0	0.0	0.0	0.0	0.0	467.0	-0.609	-0.135	
5.0	0.0	0.0	0.0	0.0	465.0	-0.612	-0.123	
6.0	0.0	0.0	0.0	0.0	463.0	-0.612	-0.12	
7.0	0.0	0.0	0.0	0.0	461.0	-0.606	-0.085	
8.0	0.0	0.0	0.0	0.0	460.0	-0.603	-0.085	
9.0	0.0	0.0	0.0	0.0	460.0	-0.596	-0.067	
10.0	0.0	0.0	0.0	0.0	459.0	-0.59	-0.067	
11.0	0.0	0.0	0.0	0.0	458.0	-0.58	0.27	
12.0	0.0	0.0	0.0	0.0	458.0	-0.574	0.712	
13.0	0.0	0.0	0.0	0.0	457.0	-0.567	0.571	
14.0	0.0	0.0	0.0	0.0	454.0	-0.558	0.079	
15.0	0.0	0.0	0.0	0.0	454.0	-0.548	-0.067	
0.0	0.0	0.0	0.0	0.0	455.0	-0.538	-0.097	
1.0	0.0	0.0	0.0	0.0	456.0	-0.529	-0.067	
2.0	0.0	0.0	0.0	0.0	457.0	-0.516	-0.05	
3.0	0.0	0.0	0.0	0.0	459.0	-0.506	-0.082	
4.0	0.0	0.0	0.0	0.0	460.0	-0.493	-0.047	
5.0	0.0	0.0	0.0	0.0	460.0	-0.487	-0.062	
6.0	0.0	0.0	0.0	0.0	460.0	-0.477	-0.07	
7.0	0.0	0.0	0.0	0.0	462.0	-0.467	-0.059	
8.0	0.0	0.0	0.0	0.0	462.0	-0.458	-0.076	
9.0	0.0	0.0	0.0	0.0	462.0	-0.451	-0.097	
10.0	0.0	0.0	0.0	0.0	462.0	-0.438	-0.079	
11.0	0.0	0.0	0.0	0.0	461.0	-0.432	-0.073	
12.0	0.0	0.0	0.0	0.0	459.0	-0.425	-0.094	
13.0	0.0	0.0	0.0	0.0	457.0	-0.416	-0.064	
14.0	0.0	0.0	0.0	0.0	456.0	-0.413	-0.032	
15.0	0.0	0.0	0.0	0.0	454.0	-0.406	-0.029	
0.0	0.0	0.0	0.0	0.0	452.0	-0.4	-0.029	
1.0	0.0	0.0	0.0	0.0	451.0	-0.396	-0.035	
2.0	0.0	0.0	0.0	0.0	451.0	-0.393	0.0	
3.0	0.0	0.0	0.0	0.0	451.0	-0.39	0.009	
4.0	0.0	0.0	0.0	0.0	450.0	-0.39	0.021	
5.0	0.0	0.0	0.0	0.0	451.0	-0.39	0.026	
6.0	0.0	0.0	0.0	0.0	452.0	-0.39	0.05	
7.0	0.0	0.0	0.0	0.0	455.0	-0.393	0.108	
8.0	0.0	0.0	0.0	0.0	458.0	-0.396	0.076	
9.0	0.0	0.0	0.0	0.0	461.0	-0.403	0.05	
10.0	0.0	0.0	0.0	0.0	465.0	-0.409	0.07	
11.0	0.0	0.0	0.0	0.0	470.0	-0.413	0.059	
12.0	0.0	0.0	0.0	0.0	474.0	-0.419	0.038	
13.0	0.0	0.0	0.0	0.0	478.0	-0.425	0.003	
14.0	0.0	0.0	0.0	0.0	483.0	-0.432	-0.035	
15.0	0.0	0.0	0.0	0.0	491.0	-0.438	-0.097	
0.0	0.0	0.0	0.0	0.0	498.0	-0.438	-0.161	
1.0	0.0	0.0	0.0	0.0	504.0	-0.448	-0.205	
2.0	0.0	0.0	0.0	0.0	510.0	-0.451	-0.193	
3.0	0.0	0.0	0.0	0.0	515.0	-0.454	-0.185	
4.0	0.0	0.0	0.0	0.0	520.0	-0.458	-0.179	
5.0	0.0	0.0	0.0	0.0	523.0	-0.458	-0.158	
6.0	0.0	0.0	0.0	0.0	523.0	-0.461	-0.132	
7.0	0.0	0.0	0.0	0.0	525.0	-0.461	-0.091	
8.0	0.0	0.0	0.0	0.0	526.0	-0.461	-0.067	
9.0	0.0	0.0	0.0	0.0	527.0	-0.464	-0.018	
10.0	0.0	0.0	0.0	0.0	528.0	-0.461	-0.015	
11.0	0.0	0.0	0.0	0.0	530.0	-0.458	0.003	
12.0	0.0	0.0	0.0	0.0	531.0	-0.458	0.044	
13.0	0.0	0.0	0.0	0.0	532.0	-0.458	0.082	
14.0	0.0	0.0	0.0	0.0	535.0	-0.454	0.059	
15.0	0.0	0.0	0.0	0.0	537.0	-0.451	0.047	
0.0	0.0	0.0	0.0	0.0	542.0	-0.451	0.067	
1.0	0.0	0.0	0.0	0.0	544.0	-0.448	0.07	
2.0	0.0	0.0	0.0	0.0	544.0	-0.448	0.038	
3.0	0.0	0.0	0.0	0.0	545.0	-0.448	0.041	
4.0	0.0	0.0	0.0	0.0	547.0	-0.454	0.003	
5.0	0.0	0.0	0.0	0.0	545.0	-0.461	0.009	
6.0	0.0	0.0	0.0	0.0	543.0	-0.464	0.0	
7.0	0.0	0.0	0.0	0.0	542.0	-0.474	-0.009	
8.0	0.0	0.0	0.0	0.0	538.0	-0.48	-0.035	
9.0	0.0	0.0	0.0	0.0	536.0	-0.493	-0.044	
10.0	0.0	0.0	0.0	0.0	532.0	-0.503	-0.038	
11.0	0.0	0.0	0.0	0.0	528.0	-0.516	-0.035	
12.0	0.0	0.0	0.0	0.0	526.0	-0.529	-0.047	
13.0	0.0	0.0	0.0	0.0	525.0	-0.545	-0.038	
14.0	0.0	0.0	0.0	0.0	524.0	-0.561	-0.047	
15.0	0.0	0.0	0.0	0.0	523.0	-0.577	-0.053	
0.0	0.0	0.0	0.0	0.0	521.0	-0.593	-0.035	
1.0	0.0	0.0	0.0	0.0	519.0	-0.609	-0.029	
2.0	0.0	0.0	0.0	0.0	517.0	-0.632	-0.029	
3.0	0.0	0.0	0.0	0.0	517.0	-0.648	-0.032	
4.0	0.0	0.0	0.0	0.0	517.0	-0.667	-0.021	
5.0	0.0	0.0	0.0	0.0	517.0	-0.69	-0.067	
6.0	0.0	0.0	0.0	0.0	516.0	-0.709	-0.006	
7.0	0.0	0.0	0.0	0.0	518.0	-0.725	0.023	
8.0	0.0	0.0	0.0	0.0	518.0	-0.744	0.012	
9.0	0.0	0.0	0.0	0.0	518.0	-0.767	0.015	
10.0	0.0	0.0	0.0	0.0	517.0	-0.786	0.009	
11.0	0.0	0.0	0.0	0.0	516.0	-0.812	0.026	
12.0	0.0	0.0	0.0	0.0	516.0	-0.838	-0.012	
13.0	0.0	0.0	0.0	0.0	515.0	-0.86	-0.021	
14.0	0.0	0.0	0.0	0.0	513.0	-0.88	-0.021	
15.0	0.0	0.0	0.0	0.0	511.0	-0.902	-0.044	
0.0	0.0	0.0	0.0	0.0	508.0	-0.915	-0.035	
1.0	0.0	0.0	0.0	0.0	505.0	-0.928	-0.047	
2.0	0.0	0.0	0.0	0.0	502.0	-0.938	-0.067	
3.0	0.0	0.0	0.0	0.0	501.0	-0.944	-0.044	
4.0	0.0	0.0	0.0	0.0	499.0	-0.951	-0.047	
5.0	0.0	0.0	0.0	0.0	499.0	-0.954	0.0	
6.0	0.0	0.0	0.0	0.0	499.0	-0.951	-0.035	
7.0	0.0	0.0	0.0	0.0	500.0	-0.944	-0.009	
8.0	0.0	0.0	0.0	0.0	499.0	-0.941	-0.021	
9.0	0.0	0.0	0.0	0.0	499.0	-0.935	-0.035	
10.0	0.0	0.0	0.0	0.0	499.0	-0.922	0.023	
11.0	0.0	0.0	0.0	0.0	498.0	-0.912	0.029	
12.0	0.0	0.0	0.0	0.0	496.0	-0.899	0.026	
13.0	0.0	0.0	0.0	0.0	495.0	-0.883	0.035	
14.0	0.0	0.0	0.0	0.0	492.0	-0.873	0.053	
15.0	0.0	0.0	0.0	0.0	492.0	-0.86	0.056	
0.0	0.0	0.0	0.0	0.0	492.0	-0.844	0.021	
1.0	0.0	0.0	0.0	0.0	490.0	-0.831	0.076	
2.0	0.0	0.0	0.0	0.0	487.0	-0.819	0.07	
3.0	0.0	0.0	0.0	0.0	486.0	-0.806	0.056	
4.0	0.0	0.0	0.0	0.0	484.0	-0.793	0.053	
5.0	0.0	0.0	0.0	0.0	483.0	-0.78	0.0	
6.0	0.0	0.0	0.0	0.0	481.0	-0.77	0.035	
7.0	0.0	0.0	0.0	0.0	481.0	-0.757	0.035	
8.0	0.0	0.0	0.0	0.0	482.0	-0.748	0.038	
9.0	0.0	0.0	0.0	0.0	482.0	-0.741	0.035	
10.0	0.0	0.0	0.0	0.0	482.0	-0.732	0.056	
11.0	0.0	0.0	0.0	0.0	483.0	-0.725	0.091	
12.0	0.0	0.0	0.0	0.0	483.0	-0.719	0.155	
13.0	0.0	0.0	0.0	0.0	483.0	-0.712	0.173	
14.0	0.0	0.0	0.0	0.0	483.0	-0.706	0.167	
15.0	0.0	0.0	0.0	0.0	484.0	-0.696	0.158	
0.0	0.0	0.0	0.0	0.0	484.0	-0.69	0.035	
1.0	0.0	0.0	0.0	0.0	485.0	-0.68	-0.038	
2.0	0.0	0.0	0.0	0.0	485.0	-0.67	-0.105	
3.0	0.0	0.0	0.0	0.0	484.0	-0.657	-0.094	
4.0	0.0	0.0	0.0	0.0	483.0	-0.648	-0.103	
5.0	0.0	0.0	0.0	0.0	482.0	-0.635	-0.073	
6.0	0.0	0.0	0.0	0.0	480.0	-0.625	-0.117	
7.0	0.0	0.0	0.0	0.0	478.0	-0.612	-0.097	
8.0	0.0	0.0	0.0	0.0	475.0	-0.599	-0.103	
9.0	0.0	0.0	0.0	0.0	474.0	-0.59	-0.032	
10.0	0.0	0.0	0.0	0.0	473.0	-0.577	0.442	
11.0	0.0	0.0	0.0	0.0	473.0	-0.567	0.677	
12.0	0.0	0.0	0.0	0.0	472.0	-0.558	0.208	
13.0	0.0	0.0	0.0	0.0	472.0	-0.545	-0.144	
14.0	0.0	0.0	0.0	0.0	471.0	-0.538	-0.22	
15.0	0.0	0.0	0.0	0.0	471.0	-0.532	-0.217	
0.0	0.0	0.0	0.0	0.0	470.0	-0.522	-0.199	
1.0	0.0	0.0	0.0	0.0	467.0	-0.519	-0.164	
2.0	0.0	0.0	0.0	0.0	464.0	-0.512	-0.164	
3.0	0.0	0.0	0.0	0.0	463.0	-0.509	-0.123	
4.0	0.0	0.0	0.0	0.0	465.0	-0.506	-0.108	
5.0	0.0	0.0	0.0	0.0	465.0	-0.509	-0.091	
6.0	0.0	0.0	0.0	0.0	467.0	-0.509	-0.097	
7.0	0.0	0.0	0.0	0.0	470.0	-0.516	-0.035	
8.0	0.0	0.0	0.0	0.0	472.0	-0.519	-0.035	
9.0	0.0	0.0	0.0	0.0	473.0	-0.522	-0.029	
10.0	0.0	0.0	0.0	0.0	473.0	-0.529	-0.023	
11.0	0.0	0.0	0.0	0.0	472.0	-0.532	-0.038	
12.0	0.0	0.0	0.0	0.0	470.0	-0.538	-0.021	
13.0	0.0	0.0	0.0	0.0	467.0	-0.545	-0.006	
14.0	0.0	0.0	0.0	0.0	465.0	-0.548	-0.035	
15.0	0.0	0.0	0.0	0.0	465.0	-0.558	0.038	
0.0	0.0	0.0	0.0	0.0	465.0	-0.564	0.023	
1.0	0.0	0.0	0.0	0.0	462.0	-0.57	0.038	
2.0	0.0	0.0	0.0	0.0	461.0	-0.58	0.041	
3.0	0.0	0.0	0.0	0.0	462.0	-0.59	0.064	
4.0	0.0	0.0	0.0	0.0	463.0	-0.596	0.091	
5.0	0.0	0.0	0.0	0.0	463.0	-0.606	0.079	
6.0	0.0	0.0	0.0	0.0	464.0	-0.619	0.105	
7.0	0.0	0.0	0.0	0.0	467.0	-0.628	0.117	
8.0	0.0	0.0	0.0	0.0	470.0	-0.641	0.114	
9.0	0.0	0.0	0.0	0.0	475.0	-0.651	0.105	
10.0	0.0	0.0	0.0	0.0	480.0	-0.661	0.108	
11.0	0.0	0.0	0.0	0.0	488.0	-0.67	0.105	
12.0	0.0	0.0	0.0	0.0	497.0	-0.683	0.059	
13.0	0.0	0.0	0.0	0.0	504.0	-0.696	-0.006	
14.0	0.0	0.0	0.0	0.0	511.0	-0.706	-0.041	
15.0	0.0	0.0	0.0	0.0	518.0	-0.715	-0.1	
0.0	0.0	0.0	0.0	0.0	522.0	-0.725	-0.135	
1.0	0.0	0.0	0.0	0.0	527.0	-0.735	-0.135	
2.0	0.0	0.0	0.0	0.0	531.0	-0.744	-0.129	
3.0	0.0	0.0	0.0	0.0	532.0	-0.751	-0.132	
4.0	0.0	0.0	0.0	0.0	533.0	-0.757	-0.1	
5.0	0.0	0.0	0.0	0.0	536.0	-0.761	-0.064	
6.0	0.0	0.0	0.0	0.0	538.0	-0.767	-0.073	
7.0	0.0	0.0	0.0	0.0	539.0	-0.773	-0.062	
8.0	0.0	0.0	0.0	0.0	542.0	-0.777	-0.07	
9.0	0.0	0.0	0.0	0.0	545.0	-0.783	-0.021	
10.0	0.0	0.0	0.0	0.0	547.0	-0.79	-0.032	
11.0	0.0	0.0	0.0	0.0	548.0	-0.79	-0.021	
12.0	0.0	0.0	0.0	0.0	549.0	-0.79	0.0	
13.0	0.0	0.0	0.0	0.0	551.0	-0.796	0.012	
14.0	0.0	0.0	0.0	0.0	552.0	-0.799	0.009	
15.0	0.0	0.0	0.0	0.0	556.0	-0.802	0.0	
0.0	0.0	0.0	0.0	0.0	559.0	-0.799	0.006	
1.0	0.0	0.0	0.0	0.0	561.0	-0.799	0.012	
2.0	0.0	0.0	0.0	0.0	563.0	-0.799	0.0	
3.0	0.0	0.0	0.0	0.0	564.0	-0.802	-0.012	
4.0	0.0	0.0	0.0	0.0	563.0	-0.802	-0.003	
5.0	0.0	0.0	0.0	0.0	561.0	-0.799	0.0	
6.0	0.0	0.0	0.0	0.0	558.0	-0.796	-0.018	
7.0	0.0	0.0	0.0	0.0	556.0	-0.799	-0.015	
8.0	0.0	0.0	0.0	0.0	553.0	-0.799	-0.021	
9.0	0.0	0.0	0.0	0.0	549.0	-0.796	-0.035	
10.0	0.0	0.0	0.0	0.0	543.0	-0.799	-0.032	
11.0	0.0	0.0	0.0	0.0	539.0	-0.802	-0.023	
12.0	0.0	0.0	0.0	0.0	536.0	-0.802	-0.032	
13.0	0.0	0.0	0.0	0.0	532.0	-0.802	-0.029	
14.0	0.0	0.0	0.0	0.0	532.0	-0.806	-0.038	
15.0	0.0	0.0	0.0	0.0	531.0	-0.809	-0.009	
0.0	0.0	0.0	0.0	0.0	531.0	-0.806	-0.018	
1.0	0.0	0.0	0.0	0.0	531.0	-0.806	-0.012	
2.0	0.0	0.0	0.0	0.0	530.0	-0.812	-0.003	
3.0	0.0	0.0	0.0	0.0	530.0	-0.812	0.023	
4.0	0.0	0.0	0.0	0.0	530.0	-0.809	-0.009	
5.0	0.0	0.0	0.0	0.0	529.0	-0.809	0.006	
6.0	0.0	0.0	0.0	0.0	529.0	-0.806	0.009	
7.0	0.0	0.0	0.0	0.0	528.0	-0.799	-0.003	
8.0	0.0	0.0	0.0	0.0	529.0	-0.799	-0.012	
9.0	0.0	0.0	0.0	0.0	529.0	-0.796	0.029	
10.0	0.0	0.0	0.0	0.0	528.0	-0.79	0.0	
11.0	0.0	0.0	0.0	0.0	527.0	-0.786	0.003	
12.0	0.0	0.0	0.0	0.0	526.0	-0.783	0.009	
13.0	0.0	0.0	0.0	0.0	525.0	-0.783	0.009	
14.0	0.0	0.0	0.0	0.0	524.0	-0.78	0.012	
15.0	0.0	0.0	0.0	0.0	523.0	-0.78	0.015	
0.0	0.0	0.0	0.0	0.0	520.0	-0.777	0.009	
1.0	0.0	0.0	0.0	0.0	519.0	-0.777	0.0	
2.0	0.0	0.0	0.0	0.0	518.0	-0.773	0.032	
3.0	0.0	0.0	0.0	0.0	515.0	-0.77	0.041	
4.0	0.0	0.0	0.0	0.0	513.0	-0.767	0.018	
5.0	0.0	0.0	0.0	0.0	512.0	-0.764	0.029	
6.0	0.0	0.0	0.0	0.0	510.0	-0.764	0.021	
7.0	0.0	0.0	0.0	0.0	508.0	-0.757	0.003	
8.0	0.0	0.0	0.0	0.0	507.0	-0.754	-0.012	
9.0	0.0	0.0	0.0	0.0	506.0	-0.751	0.041	
10.0	0.0	0.0	0.0	0.0	505.0	-0.751	0.026	
11.0	0.0	0.0	0.0	0.0	504.0	-0.748	0.021	
12.0	0.0	0.0	0.0	0.0	505.0	-0.744	-0.003	
13.0	0.0	0.0	0.0	0.0	507.0	-0.741	-0.009	
14.0	0.0	0.0	0.0	0.0	507.0	-0.738	-0.012	
15.0	0.0	0.0	0.0	0.0	507.0	-0.735	-0.023	
0.0	0.0	0.0	0.0	0.0	505.0	-0.735	-0.029	
1.0	0.0	0.0	0.0	0.0	503.0	-0.732	-0.029	
2.0	0.0	0.0	0.0	0.0	501.0	-0.732	0.015	
3.0	0.0	0.0	0.0	0.0	501.0	-0.728	0.006	
4.0	0.0	0.0	0.0	0.0	499.0	-0.728	-0.006	
5.0	0.0	0.0	0.0	0.0	497.0	-0.725	-0.009	
6.0	0.0	0.0	0.0	0.0	496.0	-0.725	-0.012	
7.0	0.0	0.0	0.0	0.0	494.0	-0.722	-0.012	
8.0	0.0	0.0	0.0	0.0	493.0	-0.719	0.023	
9.0	0.0	0.0	0.0	0.0	493.0	-0.719	0.026	
10.0	0.0	0.0	0.0	0.0	494.0	-0.715	0.009	
11.0	0.0	0.0	0.0	0.0	494.0	-0.715	0.023	
12.0	0.0	0.0	0.0	0.0	493.0	-0.712	0.012	
13.0	0.0	0.0	0.0	0.0	492.0	-0.712	0.053	
14.0	0.0	0.0	0.0	0.0	490.0	-0.712	0.094	
15.0	0.0	0.0	0.0	0.0	489.0	-0.712	0.111	
0.0	0.0	0.0	0.0	0.0	489.0	-0.712	0.146	
1.0	0.0	0.0	0.0	0.0	487.0	-0.709	0.064	
2.0	0.0	0.0	0.0	0.0	487.0	-0.709	-0.012	
3.0	0.0	0.0	0.0	0.0	486.0	-0.709	-0.032	
4.0	0.0	0.0	0.0	0.0	485.0	-0.709	-0.067	
5.0	0.0	0.0	0.0	0.0	483.0	-0.709	-0.07	
6.0	0.0	0.0	0.0	0.0	482.0	-0.709	-0.064	
7.0	0.0	0.0	0.0	0.0	480.0	-0.709	-0.047	
8.0	0.0	0.0	0.0	0.0	479.0	-0.712	-0.07	
9.0	0.0	0.0	0.0	0.0	478.0	-0.709	-0.097	
10.0	0.0	0.0	0.0	0.0	477.0	-0.712	0.064	
11.0	0.0	0.0	0.0	0.0	477.0	-0.712	0.58	
12.0	0.0	0.0	0.0	0.0	476.0	-0.712	0.656	
13.0	0.0	0.0	0.0	0.0	477.0	-0.712	0.067	
14.0	0.0	0.0	0.0	0.0	476.0	-0.712	-0.17	
15.0	0.0	0.0	0.0	0.0	475.0	-0.712	-0.22	
0.0	0.0	0.0	0.0	0.0	473.0	-0.712	-0.176	
1.0	0.0	0.0	0.0	0.0	472.0	-0.715	-0.179	
2.0	0.0	0.0	0.0	0.0	473.0	-0.719	-0.149	
3.0	0.0	0.0	0.0	0.0	475.0	-0.722	-0.123	
4.0	0.0	0.0	0.0	0.0	477.0	-0.722	-0.129	
5.0	0.0	0.0	0.0	0.0	479.0	-0.722	-0.073	
6.0	0.0	0.0	0.0	0.0	478.0	-0.725	-0.07	
7.0	0.0	0.0	0.0	0.0	478.0	-0.725	-0.047	
8.0	0.0	0.0	0.0	0.0	478.0	-0.728	-0.05	
9.0	0.0	0.0	0.0	0.0	476.0	-0.732	-0.023	
10.0	0.0	0.0	0.0	0.0	472.0	-0.732	-0.035	
11.0	0.0	0.0	0.0	0.0	470.0	-0.735	-0.006	
12.0	0.0	0.0	0.0	0.0	467.0	-0.738	-0.006	
13.0	0.0	0.0	0.0	0.0	465.0	-0.744	-0.006	
14.0	0.0	0.0	0.0	0.0	464.0	-0.751	0.009	
15.0	0.0	0.0	0.0	0.0	464.0	-0.757	0.012	
0.0	0.0	0.0	0.0	0.0	465.0	-0.764	0.006	
1.0	0.0	0.0	0.0	0.0	467.0	-0.77	0.023	
2.0	0.0	0.0	0.0	0.0	467.0	-0.777	0.041	
3.0	0.0	0.0	0.0	0.0	467.0	-0.786	0.021	
4.0	0.0	0.0	0.0	0.0	467.0	-0.793	0.053	
5.0	0.0	0.0	0.0	0.0	467.0	-0.799	0.035	
6.0	0.0	0.0	0.0	0.0	465.0	-0.809	0.05	
7.0	0.0	0.0	0.0	0.0	467.0	-0.815	0.082	
8.0	0.0	0.0	0.0	0.0	470.0	-0.822	0.082	
9.0	0.0	0.0	0.0	0.0	474.0	-0.825	0.085	
10.0	0.0	0.0	0.0	0.0	480.0	-0.835	0.082	
11.0	0.0	0.0	0.0	0.0	487.0	-0.838	0.067	
12.0	0.0	0.0	0.0	0.0	495.0	-0.848	0.056	
13.0	0.0	0.0	0.0	0.0	505.0	-0.854	0.0	
14.0	0.0	0.0	0.0	0.0	513.0	-0.86	-0.059	
15.0	0.0	0.0	0.0	0.0	520.0	-0.867	-0.135	
0.0	0.0	0.0	0.0	0.0	527.0	-0.873	-0.155	
1.0	0.0	0.0	0.0	0.0	535.0	-0.877	-0.155	
2.0	0.0	0.0	0.0	0.0	540.0	-0.883	-0.173	
3.0	0.0	0.0	0.0	0.0	545.0	-0.886	-0.158	
4.0	0.0	0.0	0.0	0.0	549.0	-0.889	-0.158	
5.0	0.0	0.0	0.0	0.0	552.0	-0.896	-0.132	
6.0	0.0	0.0	0.0	0.0	554.0	-0.899	-0.103	
7.0	0.0	0.0	0.0	0.0	555.0	-0.899	-0.088	
8.0	0.0	0.0	0.0	0.0	552.0	-0.906	-0.059	
9.0	0.0	0.0	0.0	0.0	552.0	-0.906	-0.029	
10.0	0.0	0.0	0.0	0.0	552.0	-0.909	-0.026	
11.0	0.0	0.0	0.0	0.0	553.0	-0.909	0.038	
12.0	0.0	0.0	0.0	0.0	555.0	-0.906	0.038	
13.0	0.0	0.0	0.0	0.0	559.0	-0.912	0.079	
14.0	0.0	0.0	0.0	0.0	563.0	-0.909	0.07	
15.0	0.0	0.0	0.0	0.0	566.0	-0.909	0.1	
0.0	0.0	0.0	0.0	0.0	568.0	-0.906	0.111	
1.0	0.0	0.0	0.0	0.0	570.0	-0.902	0.108	
2.0	0.0	0.0	0.0	0.0	572.0	-0.899	0.091	
3.0	0.0	0.0	0.0	0.0	574.0	-0.902	0.085	
4.0	0.0	0.0	0.0	0.0	574.0	-0.899	0.091	
5.0	0.0	0.0	0.0	0.0	575.0	-0.896	0.097	
6.0	0.0	0.0	0.0	0.0	572.0	-0.896	0.091	
7.0	0.0	0.0	0.0	0.0	569.0	-0.899	0.082	
8.0	0.0	0.0	0.0	0.0	566.0	-0.899	0.079	
9.0	0.0	0.0	0.0	0.0	564.0	-0.896	0.082	
10.0	0.0	0.0	0.0	0.0	562.0	-0.899	0.059	
11.0	0.0	0.0	0.0	0.0	560.0	-0.902	0.056	
12.0	0.0	0.0	0.0	0.0	558.0	-0.902	0.056	
13.0	0.0	0.0	0.0	0.0	556.0	-0.906	0.035	
14.0	0.0	0.0	0.0	0.0	552.0	-0.902	0.047	
15.0	0.0	0.0	0.0	0.0	549.0	-0.899	0.041	
0.0	0.0	0.0	0.0	0.0	547.0	-0.896	0.021	
1.0	0.0	0.0	0.0	0.0	545.0	-0.893	0.0	
2.0	0.0	0.0	0.0	0.0	543.0	-0.889	0.009	
3.0	0.0	0.0	0.0	0.0	542.0	-0.886	0.009	
4.0	0.0	0.0	0.0	0.0	542.0	-0.883	-0.006	
5.0	0.0	0.0	0.0	0.0	541.0	-0.877	-0.006	
6.0	0.0	0.0	0.0	0.0	539.0	-0.87	0.015	
7.0	0.0	0.0	0.0	0.0	539.0	-0.867	-0.018	
8.0	0.0	0.0	0.0	0.0	538.0	-0.857	-0.018	
9.0	0.0	0.0	0.0	0.0	536.0	-0.851	-0.021	
10.0	0.0	0.0	0.0	0.0	535.0	-0.841	-0.023	
11.0	0.0	0.0	0.0	0.0	533.0	-0.835	-0.047	
12.0	0.0	0.0	0.0	0.0	531.0	-0.828	-0.023	
13.0	0.0	0.0	0.0	0.0	528.0	-0.815	-0.023	
14.0	0.0	0.0	0.0	0.0	525.0	-0.806	-0.018	
15.0	0.0	0.0	0.0	0.0	524.0	-0.796	-0.012	
0.0	0.0	0.0	0.0	0.0	521.0	-0.786	-0.035	
1.0	0.0	0.0	0.0	0.0	519.0	-0.777	-0.041	
2.0	0.0	0.0	0.0	0.0	518.0	-0.764	-0.038	
3.0	0.0	0.0	0.0	0.0	519.0	-0.748	-0.023	
4.0	0.0	0.0	0.0	0.0	519.0	-0.738	-0.023	
5.0	0.0	0.0	0.0	0.0	517.0	-0.722	-0.035	
6.0	0.0	0.0	0.0	0.0	516.0	-0.709	-0.041	
7.0	0.0	0.0	0.0	0.0	515.0	-0.693	-0.038	
8.0	0.0	0.0	0.0	0.0	512.0	-0.677	-0.047	
9.0	0.0	0.0	0.0	0.0	509.0	-0.664	-0.023	
10.0	0.0	0.0	0.0	0.0	505.0	-0.648	-0.053	
11.0	0.0	0.0	0.0	0.0	503.0	-0.632	-0.044	
12.0	0.0	0.0	0.0	0.0	501.0	-0.616	-0.035	
13.0	0.0	0.0	0.0	0.0	500.0	-0.603	-0.023	
14.0	0.0	0.0	0.0	0.0	497.0	-0.59	-0.05	
15.0	0.0	0.0	0.0	0.0	496.0	-0.577	-0.073	
0.0	0.0	0.0	0.0	0.0	495.0	-0.564	-0.056	
1.0	0.0	0.0	0.0	0.0	494.0	-0.554	-0.038	
2.0	0.0	0.0	0.0	0.0	493.0	-0.541	-0.041	
3.0	0.0	0.0	0.0	0.0	493.0	-0.535	-0.029	
4.0	0.0	0.0	0.0	0.0	496.0	-0.525	-0.009	
5.0	0.0	0.0	0.0	0.0	497.0	-0.519	0.009	
6.0	0.0	0.0	0.0	0.0	500.0	-0.509	-0.015	
7.0	0.0	0.0	0.0	0.0	503.0	-0.503	-0.029	
8.0	0.0	0.0	0.0	0.0	506.0	-0.493	-0.029	
9.0	0.0	0.0	0.0	0.0	511.0	-0.487	-0.108	
10.0	0.0	0.0	0.0	0.0	516.0	-0.477	-0.105	
11.0	0.0	0.0	0.0	0.0	519.0	-0.467	-0.073	
12.0	0.0	0.0	0.0	0.0	523.0	-0.461	-0.047	
13.0	0.0	0.0	0.0	0.0	527.0	-0.454	-0.012	
14.0	0.0	0.0	0.0	0.0	531.0	-0.448	0.012	
15.0	0.0	0.0	0.0	0.0	534.0	-0.442	0.05	
0.0	0.0	0.0	0.0	0.0	536.0	-0.435	0.105	
1.0	0.0	0.0	0.0	0.0	538.0	-0.429	0.1	
2.0	0.0	0.0	0.0	0.0	539.0	-0.425	0.059	
3.0	0.0	0.0	0.0	0.0	539.0	-0.422	-0.029	
4.0	0.0	0.0	0.0	0.0	539.0	-0.419	-0.076	
5.0	0.0	0.0	0.0	0.0	539.0	-0.416	-0.088	
6.0	0.0	0.0	0.0	0.0	538.0	-0.416	-0.12	
7.0	0.0	0.0	0.0	0.0	537.0	-0.413	-0.111	
8.0	0.0	0.0	0.0	0.0	535.0	-0.413	-0.073	
9.0	0.0	0.0	0.0	0.0	532.0	-0.409	-0.056	
10.0	0.0	0.0	0.0	0.0	526.0	-0.413	-0.062	
11.0	0.0	0.0	0.0	0.0	524.0	-0.416	-0.023	
12.0	0.0	0.0	0.0	0.0	520.0	-0.419	0.375	
13.0	0.0	0.0	0.0	0.0	518.0	-0.429	0.677	
14.0	0.0	0.0	0.0	0.0	516.0	-0.435	0.407	
15.0	0.0	0.0	0.0	0.0	513.0	-0.445	-0.015	
0.0	0.0	0.0	0.0	0.0	512.0	-0.454	-0.097	
1.0	0.0	0.0	0.0	0.0	509.0	-0.467	-0.185	
2.0	0.0	0.0	0.0	0.0	507.0	-0.477	-0.129	
3.0	0.0	0.0	0.0	0.0	505.0	-0.493	-0.161	
4.0	0.0	0.0	0.0	0.0	505.0	-0.506	-0.126	
5.0	0.0	0.0	0.0	0.0	504.0	-0.519	-0.193	
6.0	0.0	0.0	0.0	0.0	502.0	-0.532	-0.231	
7.0	0.0	0.0	0.0	0.0	502.0	-0.545	-0.126	
8.0	0.0	0.0	0.0	0.0	500.0	-0.558	-0.129	
9.0	0.0	0.0	0.0	0.0	499.0	-0.574	-0.059	
10.0	0.0	0.0	0.0	0.0	499.0	-0.59	-0.108	
11.0	0.0	0.0	0.0	0.0	497.0	-0.603	-0.021	
12.0	0.0	0.0	0.0	0.0	495.0	-0.622	0.158	
13.0	0.0	0.0	0.0	0.0	494.0	-0.641	-0.038	
14.0	0.0	0.0	0.0	0.0	495.0	-0.661	-0.105	
15.0	0.0	0.0	0.0	0.0	497.0	-0.69	-0.018	
0.0	0.0	0.0	0.0	0.0	498.0	-0.715	0.021	
1.0	0.0	0.0	0.0	0.0	499.0	-0.741	0.064	
2.0	0.0	0.0	0.0	0.0	499.0	-0.77	0.12	
3.0	0.0	0.0	0.0	0.0	501.0	-0.799	0.094	
4.0	0.0	0.0	0.0	0.0	500.0	-0.828	0.111	
5.0	0.0	0.0	0.0	0.0	496.0	-0.854	-0.082	
6.0	0.0	0.0	0.0	0.0	494.0	-0.886	0.032	
7.0	0.0	0.0	0.0	0.0	493.0	-0.915	0.044	
8.0	0.0	0.0	0.0	0.0	489.0	-0.947	0.023	
9.0	0.0	0.0	0.0	0.0	486.0	-0.98	0.064	
10.0	0.0	0.0	0.0	0.0	483.0	-1.009	0.149	
11.0	0.0	0.0	0.0	0.0	482.0	-1.034	0.176	
12.0	0.0	0.0	0.0	0.0	481.0	-1.063	0.176	
13.0	0.0	0.0	0.0	0.0	481.0	-1.092	0.158	
14.0	0.0	0.0	0.0	0.0	485.0	-1.121	0.044	
15.0	0.0	0.0	0.0	0.0	489.0	-1.147	-0.091	
0.0	0.0	0.0	0.0	0.0	494.0	-1.173	-0.114	
1.0	0.0	0.0	0.0	0.0	498.0	-1.202	-0.193	
2.0	0.0	0.0	0.0	0.0	504.0	-1.234	-0.202	
3.0	0.0	0.0	0.0	0.0	510.0	-1.263	-0.132	
4.0	0.0	0.0	0.0	0.0	513.0	-1.289	-0.135	
5.0	0.0	0.0	0.0	0.0	514.0	-1.312	-0.141	
6.0	0.0	0.0	0.0	0.0	515.0	-1.334	-0.188	
7.0	0.0	0.0	0.0	0.0	517.0	-1.354	-0.111	
8.0	0.0	0.0	0.0	0.0	519.0	-1.37	-0.173	
9.0	0.0	0.0	0.0	0.0	519.0	-1.389	-0.158	
10.0	0.0	0.0	0.0	0.0	519.0	-1.405	-0.129	
11.0	0.0	0.0	0.0	0.0	522.0	-1.418	-0.059	
12.0	0.0	0.0	0.0	0.0	526.0	-1.431	-0.038	
13.0	0.0	0.0	0.0	0.0	530.0	-1.447	-0.146	
14.0	0.0	0.0	0.0	0.0	534.0	-1.463	-0.173	
15.0	0.0	0.0	0.0	0.0	536.0	-1.473	-0.114	
0.0	0.0	0.0	0.0	0.0	540.0	-1.486	-0.076	
1.0	0.0	0.0	0.0	0.0	545.0	-1.492	-0.097	
2.0	0.0	0.0	0.0	0.0	551.0	-1.495	-0.082	
3.0	0.0	0.0	0.0	0.0	555.0	-1.499	-0.064	
4.0	0.0	0.0	0.0	0.0	557.0	-1.505	-0.088	
5.0	0.0	0.0	0.0	0.0	556.0	-1.511	-0.085	
6.0	0.0	0.0	0.0	0.0	556.0	-1.518	-0.053	
7.0	0.0	0.0	0.0	0.0	555.0	-1.524	-0.082	
8.0	0.0	0.0	0.0	0.0	553.0	-1.54	-0.094	
9.0	0.0	0.0	0.0	0.0	551.0	-1.54	-0.076	
10.0	0.0	0.0	0.0	0.0	550.0	-1.544	0.006	
11.0	0.0	0.0	0.0	0.0	550.0	-1.55	-0.1	
12.0	0.0	0.0	0.0	0.0	550.0	-1.56	-0.079	
13.0	0.0	0.0	0.0	0.0	549.0	-1.557	0.003	
14.0	0.0	0.0	0.0	0.0	549.0	-1.553	-0.064	
15.0	0.0	0.0	0.0	0.0	547.0	-1.56	-0.07	
0.0	0.0	0.0	0.0	0.0	547.0	-1.56	-0.015	
1.0	0.0	0.0	0.0	0.0	549.0	-1.55	0.015	
2.0	0.0	0.0	0.0	0.0	549.0	-1.553	0.12	
3.0	0.0	0.0	0.0	0.0	550.0	-1.547	-0.012	
4.0	0.0	0.0	0.0	0.0	552.0	-1.537	-0.053	
5.0	0.0	0.0	0.0	0.0	553.0	-1.537	0.044	
6.0	0.0	0.0	0.0	0.0	554.0	-1.524	0.0	
7.0	0.0	0.0	0.0	0.0	554.0	-1.518	0.07	
8.0	0.0	0.0	0.0	0.0	555.0	-1.511	0.05	
9.0	0.0	0.0	0.0	0.0	557.0	-1.499	0.038	
10.0	0.0	0.0	0.0	0.0	560.0	-1.489	-0.023	
11.0	0.0	0.0	0.0	0.0	564.0	-1.476	0.012	
12.0	0.0	0.0	0.0	0.0	573.0	-1.47	0.053	
13.0	0.0	0.0	0.0	0.0	583.0	-1.463	0.047	
14.0	0.0	0.0	0.0	0.0	597.0	-1.45	-0.026	
15.0	0.0	0.0	0.0	0.0	615.0	-1.441	0.082	
0.0	0.0	0.0	0.0	0.0	637.0	-1.437	0.038	
1.0	0.0	0.0	0.0	0.0	658.0	-1.431	-0.003	
2.0	0.0	0.0	0.0	0.0	680.0	-1.424	0.041	
3.0	0.0	0.0	0.0	0.0	705.0	-1.421	0.053	
4.0	0.0	0.0	0.0	0.0	731.0	-1.418	0.041	
5.0	0.0	0.0	0.0	0.0	756.0	-1.412	0.032	
6.0	0.0	0.0	0.0	0.0	779.0	-1.405	0.059	
7.0	0.0	0.0	0.0	0.0	800.0	-1.399	0.047	
8.0	0.0	0.0	0.0	0.0	819.0	-1.395	0.079	
9.0	0.0	0.0	0.0	0.0	835.0	-1.395	0.108	
10.0	0.0	0.0	0.0	0.0	847.0	-1.389	0.0	
11.0	0.0	0.0	0.0	0.0	856.0	-1.386	-0.003	
12.0	0.0	0.0	0.0	0.0	864.0	-1.389	0.059	
13.0	0.0	0.0	0.0	0.0	867.0	-1.383	0.088	
14.0	0.0	0.0	0.0	0.0	867.0	-1.383	0.088	
15.0	0.0	0.0	0.0	0.0	864.0	-1.383	0.006	
0.0	0.0	0.0	0.0	0.0	862.0	-1.386	0.064	
1.0	0.0	0.0	0.0	0.0	856.0	-1.379	0.041	
2.0	0.0	0.0	0.0	0.0	849.0	-1.379	0.059	
3.0	0.0	0.0	0.0	0.0	840.0	-1.373	0.035	
4.0	0.0	0.0	0.0	0.0	831.0	-1.373	0.015	
5.0	0.0	0.0	0.0	0.0	818.0	-1.37	0.07	
6.0	0.0	0.0	0.0	0.0	802.0	-1.36	0.044	
7.0	0.0	0.0	0.0	0.0	782.0	-1.357	0.029	
8.0	0.0	0.0	0.0	0.0	760.0	-1.354	-0.012	
9.0	0.0	0.0	0.0	0.0	736.0	-1.347	0.044	
10.0	0.0	0.0	0.0	0.0	715.0	-1.347	0.082	
11.0	0.0	0.0	0.0	0.0	695.0	-1.337	0.023	
12.0	0.0	0.0	0.0	0.0	677.0	-1.334	0.07	
13.0	0.0	0.0	0.0	0.0	657.0	-1.331	0.126	
14.0	0.0	0.0	0.0	0.0	642.0	-1.331	0.12	
15.0	0.0	0.0	0.0	0.0	627.0	-1.321	0.12	
0.0	0.0	0.0	0.0	0.0	614.0	-1.318	0.161	
1.0	0.0	0.0	0.0	0.0	601.0	-1.318	0.211	
2.0	0.0	0.0	0.0	0.0	591.0	-1.315	0.135	
3.0	0.0	0.0	0.0	0.0	582.0	-1.312	0.132	
4.0	0.0	0.0	0.0	0.0	573.0	-1.305	0.026	
5.0	0.0	0.0	0.0	0.0	564.0	-1.305	0.003	
6.0	0.0	0.0	0.0	0.0	556.0	-1.296	-0.006	
7.0	0.0	0.0	0.0	0.0	549.0	-1.299	-0.018	
8.0	0.0	0.0	0.0	0.0	542.0	-1.299	-0.021	
9.0	0.0	0.0	0.0	0.0	537.0	-1.289	-0.035	
10.0	0.0	0.0	0.0	0.0	531.0	-1.289	0.0	
11.0	0.0	0.0	0.0	0.0	526.0	-1.286	-0.085	
12.0	0.0	0.0	0.0	0.0	522.0	-1.279	0.176	
13.0	0.0	0.0	0.0	0.0	517.0	-1.279	0.691	
14.0	0.0	0.0	0.0	0.0	512.0	-1.276	0.662	
15.0	0.0	0.0	0.0	0.0	504.0	-1.267	0.018	
0.0	0.0	0.0	0.0	0.0	497.0	-1.267	-0.091	
1.0	0.0	0.0	0.0	0.0	492.0	-1.263	-0.179	
2.0	0.0	0.0	0.0	0.0	483.0	-1.26	-0.129	
3.0	0.0	0.0	0.0	0.0	476.0	-1.254	-0.103	
4.0	0.0	0.0	0.0	0.0	471.0	-1.254	-0.108	
5.0	0.0	0.0	0.0	0.0	468.0	-1.247	-0.141	
6.0	0.0	0.0	0.0	0.0	466.0	-1.241	-0.076	
7.0	0.0	0.0	0.0	0.0	465.0	-1.237	-0.047	
8.0	0.0	0.0	0.0	0.0	466.0	-1.234	-0.032	
9.0	0.0	0.0	0.0	0.0	468.0	-1.234	-0.021	
10.0	0.0	0.0	0.0	0.0	472.0	-1.231	-0.029	
11.0	0.0	0.0	0.0	0.0	476.0	-1.231	0.003	
12.0	0.0	0.0	0.0	0.0	479.0	-1.228	-0.018	
13.0	0.0	0.0	0.0	0.0	482.0	-1.228	-0.003	
14.0	0.0	0.0	0.0	0.0	484.0	-1.228	0.023	
15.0	0.0	0.0	0.0	0.0	488.0	-1.228	0.059	
0.0	0.0	0.0	0.0	0.0	491.0	-1.231	0.067	
1.0	0.0	0.0	0.0	0.0	492.0	-1.237	0.111	
2.0	0.0	0.0	0.0	0.0	494.0	-1.234	0.067	
3.0	0.0	0.0	0.0	0.0	494.0	-1.241	0.021	
4.0	0.0	0.0	0.0	0.0	494.0	-1.241	0.103	
5.0	0.0	0.0	0.0	0.0	495.0	-1.25	0.088	
6.0	0.0	0.0	0.0	0.0	497.0	-1.25	0.056	
7.0	0.0	0.0	0.0	0.0	502.0	-1.257	0.108	
8.0	0.0	0.0	0.0	0.0	507.0	-1.26	0.123	
9.0	0.0	0.0	0.0	0.0	513.0	-1.263	0.111	
10.0	0.0	0.0	0.0	0.0	522.0	-1.27	0.117	
11.0	0.0	0.0	0.0	0.0	535.0	-1.273	0.12	
12.0	0.0	0.0	0.0	0.0	547.0	-1.279	0.149	
13.0	0.0	0.0	0.0	0.0	562.0	-1.279	0.117	
14.0	0.0	0.0	0.0	0.0	577.0	-1.289	0.05	
15.0	0.0	0.0	0.0	0.0	592.0	-1.286	0.041	
0.0	0.0	0.0	0.0	0.0	606.0	-1.296	-0.032	
1.0	0.0	0.0	0.0	0.0	620.0	-1.296	-0.094	
2.0	0.0	0.0	0.0	0.0	631.0	-1.302	-0.152	
3.0	0.0	0.0	0.0	0.0	641.0	-1.302	-0.152	
4.0	0.0	0.0	0.0	0.0	647.0	-1.305	-0.141	
5.0	0.0	0.0	0.0	0.0	652.0	-1.308	-0.1	
6.0	0.0	0.0	0.0	0.0	655.0	-1.312	-0.167	
7.0	0.0	0.0	0.0	0.0	654.0	-1.305	-0.105	
8.0	0.0	0.0	0.0	0.0	652.0	-1.305	-0.103	
9.0	0.0	0.0	0.0	0.0	648.0	-1.308	-0.059	
10.0	0.0	0.0	0.0	0.0	646.0	-1.302	-0.088	
11.0	0.0	0.0	0.0	0.0	647.0	-1.302	-0.012	
12.0	0.0	0.0	0.0	0.0	649.0	-1.296	-0.079	
13.0	0.0	0.0	0.0	0.0	652.0	-1.296	-0.035	
14.0	0.0	0.0	0.0	0.0	655.0	-1.283	0.0	
15.0	0.0	0.0	0.0	0.0	657.0	-1.276	-0.023	
0.0	0.0	0.0	0.0	0.0	662.0	-1.273	-0.059	
1.0	0.0	0.0	0.0	0.0	669.0	-1.263	-0.032	
2.0	0.0	0.0	0.0	0.0	674.0	-1.257	0.012	
3.0	0.0	0.0	0.0	0.0	678.0	-1.244	-0.012	
4.0	0.0	0.0	0.0	0.0	679.0	-1.244	-0.021	
5.0	0.0	0.0	0.0	0.0	680.0	-1.231	0.05	
6.0	0.0	0.0	0.0	0.0	679.0	-1.225	0.003	
7.0	0.0	0.0	0.0	0.0	676.0	-1.218	-0.026	
8.0	0.0	0.0	0.0	0.0	672.0	-1.212	0.0	
9.0	0.0	0.0	0.0	0.0	666.0	-1.208	-0.035	
10.0	0.0	0.0	0.0	0.0	659.0	-1.202	-0.035	
11.0	0.0	0.0	0.0	0.0	651.0	-1.199	-0.012	
12.0	0.0	0.0	0.0	0.0	643.0	-1.192	0.003	
13.0	0.0	0.0	0.0	0.0	636.0	-1.192	-0.026	
14.0	0.0	0.0	0.0	0.0	630.0	-1.186	-0.015	
15.0	0.0	0.0	0.0	0.0	624.0	-1.186	-0.035	
0.0	0.0	0.0	0.0	0.0	621.0	-1.176	-0.038	
1.0	0.0	0.0	0.0	0.0	619.0	-1.176	-0.023	
2.0	0.0	0.0	0.0	0.0	618.0	-1.17	-0.047	
3.0	0.0	0.0	0.0	0.0	615.0	-1.163	-0.079	
4.0	0.0	0.0	0.0	0.0	615.0	-1.16	-0.035	
5.0	0.0	0.0	0.0	0.0	615.0	-1.154	-0.07	
6.0	0.0	0.0	0.0	0.0	613.0	-1.147	0.026	
7.0	0.0	0.0	0.0	0.0	612.0	-1.138	-0.073	
8.0	0.0	0.0	0.0	0.0	609.0	-1.134	-0.082	
9.0	0.0	0.0	0.0	0.0	607.0	-1.125	-0.006	
10.0	0.0	0.0	0.0	0.0	603.0	-1.112	-0.038	
11.0	0.0	0.0	0.0	0.0	598.0	-1.105	-0.059	
12.0	0.0	0.0	0.0	0.0	593.0	-1.092	-0.047	
13.0	0.0	0.0	0.0	0.0	590.0	-1.086	-0.07	
14.0	0.0	0.0	0.0	0.0	586.0	-1.073	-0.047	
15.0	0.0	0.0	0.0	0.0	582.0	-1.063	-0.026	
0.0	0.0	0.0	0.0	0.0	579.0	-1.054	-0.032	
1.0	0.0	0.0	0.0	0.0	575.0	-1.041	-0.009	
2.0	0.0	0.0	0.0	0.0	573.0	-1.034	-0.047	
3.0	0.0	0.0	0.0	0.0	570.0	-1.025	-0.003	
4.0	0.0	0.0	0.0	0.0	568.0	-1.012	-0.009	
5.0	0.0	0.0	0.0	0.0	565.0	-1.002	0.023	
6.0	0.0	0.0	0.0	0.0	561.0	-0.993	-0.012	
7.0	0.0	0.0	0.0	0.0	557.0	-0.983	0.023	
8.0	0.0	0.0	0.0	0.0	554.0	-0.973	0.012	
9.0	0.0	0.0	0.0	0.0	552.0	-0.964	-0.003	
10.0	0.0	0.0	0.0	0.0	551.0	-0.957	0.044	
11.0	0.0	0.0	0.0	0.0	548.0	-0.947	0.0	
12.0	0.0	0.0	0.0	0.0	545.0	-0.938	0.026	
13.0	0.0	0.0	0.0	0.0	543.0	-0.931	0.009	
14.0	0.0	0.0	0.0	0.0	541.0	-0.925	0.041	
15.0	0.0	0.0	0.0	0.0	540.0	-0.915	0.003	
0.0	0.0	0.0	0.0	0.0	539.0	-0.912	-0.018	
1.0	0.0	0.0	0.0	0.0	538.0	-0.906	0.018	
2.0	0.0	0.0	0.0	0.0	537.0	-0.896	0.021	
3.0	0.0	0.0	0.0	0.0	536.0	-0.889	0.018	
4.0	0.0	0.0	0.0	0.0	533.0	-0.883	-0.012	
5.0	0.0	0.0	0.0	0.0	530.0	-0.877	0.0	
6.0	0.0	0.0	0.0	0.0	530.0	-0.87	0.021	
7.0	0.0	0.0	0.0	0.0	529.0	-0.864	0.0	
8.0	0.0	0.0	0.0	0.0	527.0	-0.857	-0.009	
9.0	0.0	0.0	0.0	0.0	525.0	-0.854	0.015	
10.0	0.0	0.0	0.0	0.0	524.0	-0.844	-0.006	
11.0	0.0	0.0	0.0	0.0	521.0	-0.838	0.003	
12.0	0.0	0.0	0.0	0.0	518.0	-0.835	0.041	
13.0	0.0	0.0	0.0	0.0	515.0	-0.828	0.006	
14.0	0.0	0.0	0.0	0.0	514.0	-0.822	0.035	
15.0	0.0	0.0	0.0	0.0	511.0	-0.819	-0.023	
0.0	0.0	0.0	0.0	0.0	508.0	-0.812	0.026	
1.0	0.0	0.0	0.0	0.0	504.0	-0.806	0.035	
2.0	0.0	0.0	0.0	0.0	502.0	-0.802	0.076	
3.0	0.0	0.0	0.0	0.0	499.0	-0.796	0.141	
4.0	0.0	0.0	0.0	0.0	497.0	-0.79	0.114	
5.0	0.0	0.0	0.0	0.0	495.0	-0.786	0.126	
6.0	0.0	0.0	0.0	0.0	492.0	-0.783	0.041	
7.0	0.0	0.0	0.0	0.0	489.0	-0.78	0.0	
8.0	0.0	0.0	0.0	0.0	486.0	-0.773	-0.059	
9.0	0.0	0.0	0.0	0.0	485.0	-0.773	-0.108	
10.0	0.0	0.0	0.0	0.0	483.0	-0.77	-0.105	
11.0	0.0	0.0	0.0	0.0	480.0	-0.764	-0.088	
12.0	0.0	0.0	0.0	0.0	475.0	-0.761	-0.076	
13.0	0.0	0.0	0.0	0.0	472.0	-0.757	-0.103	
14.0	0.0	0.0	0.0	0.0	470.0	-0.754	-0.114	
15.0	0.0	0.0	0.0	0.0	468.0	-0.751	0.144	
0.0	0.0	0.0	0.0	0.0	466.0	-0.748	0.621	
1.0	0.0	0.0	0.0	0.0	463.0	-0.744	0.551	
2.0	0.0	0.0	0.0	0.0	459.0	-0.738	-0.023	
3.0	0.0	0.0	0.0	0.0	455.0	-0.735	-0.217	
4.0	0.0	0.0	0.0	0.0	451.0	-0.732	-0.19	
5.0	0.0	0.0	0.0	0.0	446.0	-0.728	-0.214	
6.0	0.0	0.0	0.0	0.0	441.0	-0.728	-0.152	
7.0	0.0	0.0	0.0	0.0	435.0	-0.725	-0.138	
8.0	0.0	0.0	0.0	0.0	430.0	-0.722	-0.12	
9.0	0.0	0.0	0.0	0.0	425.0	-0.719	-0.082	
10.0	0.0	0.0	0.0	0.0	421.0	-0.719	-0.062	
11.0	0.0	0.0	0.0	0.0	416.0	-0.719	-0.038	
12.0	0.0	0.0	0.0	0.0	412.0	-0.715	-0.041	
13.0	0.0	0.0	0.0	0.0	408.0	-0.715	-0.035	
14.0	0.0	0.0	0.0	0.0	405.0	-0.715	0.0	
15.0	0.0	0.0	0.0	0.0	400.0	-0.715	0.003	
0.0	0.0	0.0	0.0	0.0	396.0	-0.715	0.009	
1.0	0.0	0.0	0.0	0.0	392.0	-0.722	0.003	
2.0	0.0	0.0	0.0	0.0	392.0	-0.725	0.026	
3.0	0.0	0.0	0.0	0.0	391.0	-0.728	0.062	
4.0	0.0	0.0	0.0	0.0	391.0	-0.738	0.035	
5.0	0.0	0.0	0.0	0.0	390.0	-0.744	0.053	
6.0	0.0	0.0	0.0	0.0	389.0	-0.748	0.056	
7.0	0.0	0.0	0.0	0.0	391.0	-0.754	0.088	
8.0	0.0	0.0	0.0	0.0	392.0	-0.761	0.064	
9.0	0.0	0.0	0.0	0.0	395.0	-0.764	0.079	
10.0	0.0	0.0	0.0	0.0	400.0	-0.764	0.097	
11.0	0.0	0.0	0.0	0.0	404.0	-0.767	0.1	
12.0	0.0	0.0	0.0	0.0	411.0	-0.77	0.073	
13.0	0.0	0.0	0.0	0.0	420.0	-0.77	0.094	
14.0	0.0	0.0	0.0	0.0	430.0	-0.77	0.085	
15.0	0.0	0.0	0.0	0.0	443.0	-0.764	0.114	
0.0	0.0	0.0	0.0	0.0	456.0	-0.761	0.062	
1.0	0.0	0.0	0.0	0.0	472.0	-0.754	0.026	
2.0	0.0	0.0	0.0	0.0	489.0	-0.751	0.032	
3.0	0.0	0.0	0.0	0.0	507.0	-0.744	-0.053	
4.0	0.0	0.0	0.0	0.0	523.0	-0.735	-0.141	
5.0	0.0	0.0	0.0	0.0	537.0	-0.732	-0.217	
6.0	0.0	0.0	0.0	0.0	551.0	-0.722	-0.202	
7.0	0.0	0.0	0.0	0.0	560.0	-0.709	-0.188	
8.0	0.0	0.0	0.0	0.0	569.0	-0.699	-0.17	
9.0	0.0	0.0	0.0	0.0	575.0	-0.69	-0.161	
10.0	0.0	0.0	0.0	0.0	579.0	-0.677	-0.123	
11.0	0.0	0.0	0.0	0.0	581.0	-0.667	-0.126	
12.0	0.0	0.0	0.0	0.0	580.0	-0.654	-0.094	
13.0	0.0	0.0	0.0	0.0	582.0	-0.641	-0.079	
14.0	0.0	0.0	0.0	0.0	584.0	-0.628	-0.012	
15.0	0.0	0.0	0.0	0.0	587.0	-0.616	-0.064	
0.0	0.0	0.0	0.0	0.0	591.0	-0.603	-0.073	
1.0	0.0	0.0	0.0	0.0	594.0	-0.593	-0.038	
2.0	0.0	0.0	0.0	0.0	599.0	-0.58	-0.029	
3.0	0.0	0.0	0.0	0.0	603.0	-0.567	0.009	
4.0	0.0	0.0	0.0	0.0	607.0	-0.551	0.023	
5.0	0.0	0.0	0.0	0.0	609.0	-0.535	-0.003	
6.0	0.0	0.0	0.0	0.0	611.0	-0.519	0.018	
7.0	0.0	0.0	0.0	0.0	613.0	-0.506	-0.003	
8.0	0.0	0.0	0.0	0.0	614.0	-0.493	0.021	
9.0	0.0	0.0	0.0	0.0	614.0	-0.48	0.032	
10.0	0.0	0.0	0.0	0.0	610.0	-0.467	0.041	
11.0	0.0	0.0	0.0	0.0	606.0	-0.458	0.032	
12.0	0.0	0.0	0.0	0.0	600.0	-0.445	0.044	
13.0	0.0	0.0	0.0	0.0	594.0	-0.435	0.006	
14.0	0.0	0.0	0.0	0.0	587.0	-0.425	-0.05	
15.0	0.0	0.0	0.0	0.0	582.0	-0.416	-0.032	
0.0	0.0	0.0	0.0	0.0	575.0	-0.409	-0.026	
1.0	0.0	0.0	0.0	0.0	569.0	-0.403	-0.021	
2.0	0.0	0.0	0.0	0.0	564.0	-0.393	-0.044	
3.0	0.0	0.0	0.0	0.0	559.0	-0.39	-0.023	
4.0	0.0	0.0	0.0	0.0	554.0	-0.383	0.026	
5.0	0.0	0.0	0.0	0.0	549.0	-0.377	-0.097	
6.0	0.0	0.0	0.0	0.0	545.0	-0.371	-0.067	
7.0	0.0	0.0	0.0	0.0	545.0	-0.364	-0.05	
8.0	0.0	0.0	0.0	0.0	545.0	-0.354	-0.073	
9.0	0.0	0.0	0.0	0.0	545.0	-0.345	-0.056	
10.0	0.0	0.0	0.0	0.0	545.0	-0.335	-0.032	
11.0	0.0	0.0	0.0	0.0	546.0	-0.322	-0.067	
12.0	0.0	0.0	0.0	0.0	543.0	-0.309	-0.05	
13.0	0.0	0.0	0.0	0.0	537.0	-0.296	-0.003	
14.0	0.0	0.0	0.0	0.0	531.0	-0.28	-0.035	
15.0	0.0	0.0	0.0	0.0	525.0	-0.264	-0.062	
0.0	0.0	0.0	0.0	0.0	518.0	-0.248	-0.021	
1.0	0.0	0.0	0.0	0.0	510.0	-0.229	-0.026	
2.0	0.0	0.0	0.0	0.0	502.0	-0.209	-0.067	
3.0	0.0	0.0	0.0	0.0	494.0	-0.193	-0.047	
4.0	0.0	0.0	0.0	0.0	486.0	-0.174	-0.041	
5.0	0.0	0.0	0.0	0.0	479.0	-0.155	-0.003	
6.0	0.0	0.0	0.0	0.0	472.0	-0.135	-0.018	
7.0	0.0	0.0	0.0	0.0	463.0	-0.119	0.032	
8.0	0.0	0.0	0.0	0.0	459.0	-0.103	0.038	
9.0	0.0	0.0	0.0	0.0	456.0	-0.09	-0.018	
10.0	0.0	0.0	0.0	0.0	456.0	-0.074	0.012	
11.0	0.0	0.0	0.0	0.0	458.0	-0.061	0.006	
12.0	0.0	0.0	0.0	0.0	458.0	-0.048	0.038	
13.0	0.0	0.0	0.0	0.0	461.0	-0.035	0.009	
14.0	0.0	0.0	0.0	0.0	464.0	-0.023	-0.003	
15.0	0.0	0.0	0.0	0.0	470.0	-0.01	0.006	
0.0	0.0	0.0	0.0	0.0	476.0	0.003	-0.018	
1.0	0.0	0.0	0.0	0.0	480.0	0.013	-0.029	
2.0	0.0	0.0	0.0	0.0	484.0	0.026	0.009	
3.0	0.0	0.0	0.0	0.0	487.0	0.039	0.003	
4.0	0.0	0.0	0.0	0.0	489.0	0.048	-0.015	
5.0	0.0	0.0	0.0	0.0	488.0	0.061	-0.059	
6.0	0.0	0.0	0.0	0.0	487.0	0.074	-0.006	
7.0	0.0	0.0	0.0	0.0	482.0	0.084	-0.003	
8.0	0.0	0.0	0.0	0.0	476.0	0.093	0.023	
9.0	0.0	0.0	0.0	0.0	469.0	0.106	-0.026	
10.0	0.0	0.0	0.0	0.0	459.0	0.116	-0.012	
11.0	0.0	0.0	0.0	0.0	449.0	0.129	-0.003	
12.0	0.0	0.0	0.0	0.0	440.0	0.139	0.038	
13.0	0.0	0.0	0.0	0.0	431.0	0.148	-0.012	
14.0	0.0	0.0	0.0	0.0	419.0	0.158	0.009	
15.0	0.0	0.0	0.0	0.0	408.0	0.171	0.009	
0.0	0.0	0.0	0.0	0.0	400.0	0.18	-0.026	
1.0	0.0	0.0	0.0	0.0	393.0	0.19	-0.044	
2.0	0.0	0.0	0.0	0.0	390.0	0.2	0.047	
3.0	0.0	0.0	0.0	0.0	389.0	0.209	0.023	
4.0	0.0	0.0	0.0	0.0	388.0	0.219	0.091	
5.0	0.0	0.0	0.0	0.0	388.0	0.229	0.12	
6.0	0.0	0.0	0.0	0.0	389.0	0.238	0.088	
7.0	0.0	0.0	0.0	0.0	391.0	0.248	0.032	
8.0	0.0	0.0	0.0	0.0	393.0	0.258	-0.053	
9.0	0.0	0.0	0.0	0.0	396.0	0.267	-0.132	
10.0	0.0	0.0	0.0	0.0	400.0	0.274	-0.126	
11.0	0.0	0.0	0.0	0.0	401.0	0.28	-0.108	
12.0	0.0	0.0	0.0	0.0	403.0	0.287	-0.129	
13.0	0.0	0.0	0.0	0.0	408.0	0.296	-0.146	
14.0	0.0	0.0	0.0	0.0	409.0	0.3	-0.085	
15.0	0.0	0.0	0.0	0.0	412.0	0.306	-0.123	
0.0	0.0	0.0	0.0	0.0	411.0	0.309	0.05	
1.0	0.0	0.0	0.0	0.0	411.0	0.313	0.551	
2.0	0.0	0.0	0.0	0.0	412.0	0.316	0.624	
3.0	0.0	0.0	0.0	0.0	411.0	0.319	0.167	
4.0	0.0	0.0	0.0	0.0	409.0	0.322	-0.138	
5.0	0.0	0.0	0.0	0.0	407.0	0.319	-0.132	
6.0	0.0	0.0	0.0	0.0	405.0	0.319	-0.173	
7.0	0.0	0.0	0.0	0.0	404.0	0.316	-0.108	
8.0	0.0	0.0	0.0	0.0	402.0	0.313	-0.094	
9.0	0.0	0.0	0.0	0.0	402.0	0.309	-0.141	
10.0	0.0	0.0	0.0	0.0	402.0	0.303	-0.097	
11.0	0.0	0.0	0.0	0.0	401.0	0.293	-0.003	
12.0	0.0	0.0	0.0	0.0	401.0	0.284	-0.009	
13.0	0.0	0.0	0.0	0.0	403.0	0.274	0.003	
14.0	0.0	0.0	0.0	0.0	406.0	0.258	0.018	
15.0	0.0	0.0	0.0	0.0	408.0	0.245	0.035	
0.0	0.0	0.0	0.0	0.0	410.0	0.229	-0.044	
1.0	0.0	0.0	0.0	0.0	412.0	0.216	0.012	
2.0	0.0	0.0	0.0	0.0	415.0	0.197	0.035	
3.0	0.0	0.0	0.0	0.0	416.0	0.177	0.079	
4.0	0.0	0.0	0.0	0.0	417.0	0.155	0.053	
5.0	0.0	0.0	0.0	0.0	418.0	0.132	0.0	
6.0	0.0	0.0	0.0	0.0	417.0	0.113	0.032	
7.0	0.0	0.0	0.0	0.0	417.0	0.09	0.079	
8.0	0.0	0.0	0.0	0.0	419.0	0.068	0.079	
9.0	0.0	0.0	0.0	0.0	421.0	0.045	0.035	
10.0	0.0	0.0	0.0	0.0	424.0	0.019	0.088	
11.0	0.0	0.0	0.0	0.0	424.0	-0.003	0.132	
12.0	0.0	0.0	0.0	0.0	427.0	-0.026	0.044	
13.0	0.0	0.0	0.0	0.0	431.0	-0.052	0.053	
14.0	0.0	0.0	0.0	0.0	433.0	-0.077	0.097	
15.0	0.0	0.0	0.0	0.0	437.0	-0.1	0.126	
0.0	0.0	0.0	0.0	0.0	443.0	-0.126	0.12	
1.0	0.0	0.0	0.0	0.0	451.0	-0.145	0.12	
2.0	0.0	0.0	0.0	0.0	462.0	-0.168	0.088	
3.0	0.0	0.0	0.0	0.0	474.0	-0.193	0.038	
4.0	0.0	0.0	0.0	0.0	488.0	-0.213	-0.009	
5.0	0.0	0.0	0.0	0.0	503.0	-0.235	-0.044	
6.0	0.0	0.0	0.0	0.0	517.0	-0.258	-0.073	
7.0	0.0	0.0	0.0	0.0	530.0	-0.277	-0.129	
8.0	0.0	0.0	0.0	0.0	542.0	-0.296	-0.17	
9.0	0.0	0.0	0.0	0.0	552.0	-0.313	-0.155	
10.0	0.0	0.0	0.0	0.0	560.0	-0.332	-0.114	
11.0	0.0	0.0	0.0	0.0	565.0	-0.348	-0.085	
12.0	0.0	0.0	0.0	0.0	568.0	-0.364	-0.088	
13.0	0.0	0.0	0.0	0.0	570.0	-0.377	-0.076	
14.0	0.0	0.0	0.0	0.0	571.0	-0.393	-0.111	
15.0	0.0	0.0	0.0	0.0	570.0	-0.406	-0.05	
0.0	0.0	0.0	0.0	0.0	571.0	-0.419	-0.035	
1.0	0.0	0.0	0.0	0.0	572.0	-0.429	-0.044	
2.0	0.0	0.0	0.0	0.0	572.0	-0.442	0.0	
3.0	0.0	0.0	0.0	0.0	574.0	-0.451	-0.006	
4.0	0.0	0.0	0.0	0.0	577.0	-0.461	0.0	
5.0	0.0	0.0	0.0	0.0	581.0	-0.471	-0.029	
6.0	0.0	0.0	0.0	0.0	584.0	-0.477	0.009	
7.0	0.0	0.0	0.0	0.0	587.0	-0.49	0.012	
8.0	0.0	0.0	0.0	0.0	588.0	-0.493	-0.009	
9.0	0.0	0.0	0.0	0.0	590.0	-0.503	0.038	
10.0	0.0	0.0	0.0	0.0	589.0	-0.512	0.035	
11.0	0.0	0.0	0.0	0.0	585.0	-0.519	0.009	
12.0	0.0	0.0	0.0	0.0	580.0	-0.529	-0.006	
13.0	0.0	0.0	0.0	0.0	576.0	-0.535	0.056	
14.0	0.0	0.0	0.0	0.0	571.0	-0.545	0.009	
15.0	0.0	0.0	0.0	0.0	566.0	-0.551	0.003	
0.0	0.0	0.0	0.0	0.0	562.0	-0.561	0.026	
1.0	0.0	0.0	0.0	0.0	558.0	-0.567	-0.012	
2.0	0.0	0.0	0.0	0.0	552.0	-0.58	0.015	
3.0	0.0	0.0	0.0	0.0	548.0	-0.593	0.026	
4.0	0.0	0.0	0.0	0.0	544.0	-0.599	0.018	
5.0	0.0	0.0	0.0	0.0	543.0	-0.609	0.018	
6.0	0.0	0.0	0.0	0.0	543.0	-0.619	-0.006	
7.0	0.0	0.0	0.0	0.0	541.0	-0.628	0.018	
8.0	0.0	0.0	0.0	0.0	540.0	-0.638	0.012	
9.0	0.0	0.0	0.0	0.0	543.0	-0.645	-0.021	
10.0	0.0	0.0	0.0	0.0	544.0	-0.654	0.053	
11.0	0.0	0.0	0.0	0.0	544.0	-0.657	0.041	
12.0	0.0	0.0	0.0	0.0	544.0	-0.667	0.015	
13.0	0.0	0.0	0.0	0.0	546.0	-0.674	0.032	
14.0	0.0	0.0	0.0	0.0	545.0	-0.677	0.012	
15.0	0.0	0.0	0.0	0.0	543.0	-0.683	0.035	
0.0	0.0	0.0	0.0	0.0	538.0	-0.686	0.041	
1.0	0.0	0.0	0.0	0.0	535.0	-0.693	0.026	
2.0	0.0	0.0	0.0	0.0	533.0	-0.696	0.018	
3.0	0.0	0.0	0.0	0.0	529.0	-0.699	0.018	
4.0	0.0	0.0	0.0	0.0	526.0	-0.699	0.015	
5.0	0.0	0.0	0.0	0.0	523.0	-0.699	0.029	
6.0	0.0	0.0	0.0	0.0	520.0	-0.699	0.009	
7.0	0.0	0.0	0.0	0.0	518.0	-0.699	0.006	
8.0	0.0	0.0	0.0	0.0	516.0	-0.699	0.012	
9.0	0.0	0.0	0.0	0.0	514.0	-0.699	0.012	
10.0	0.0	0.0	0.0	0.0	512.0	-0.699	0.044	
11.0	0.0	0.0	0.0	0.0	510.0	-0.699	0.053	
12.0	0.0	0.0	0.0	0.0	508.0	-0.699	0.07	
13.0	0.0	0.0	0.0	0.0	506.0	-0.699	0.064	
14.0	0.0	0.0	0.0	0.0	504.0	-0.699	0.079	
15.0	0.0	0.0	0.0	0.0	505.0	-0.703	0.015	
0.0	0.0	0.0	0.0	0.0	503.0	-0.703	0.006	
1.0	0.0	0.0	0.0	0.0	501.0	-0.703	0.044	
2.0	0.0	0.0	0.0	0.0	501.0	-0.699	0.035	
3.0	0.0	0.0	0.0	0.0	500.0	-0.699	-0.006	
4.0	0.0	0.0	0.0	0.0	498.0	-0.699	0.021	
5.0	0.0	0.0	0.0	0.0	495.0	-0.699	0.023	
6.0	0.0	0.0	0.0	0.0	492.0	-0.699	0.018	
7.0	0.0	0.0	0.0	0.0	491.0	-0.699	-0.012	
8.0	0.0	0.0	0.0	0.0	489.0	-0.699	-0.006	
9.0	0.0	0.0	0.0	0.0	486.0	-0.699	0.021	
10.0	0.0	0.0	0.0	0.0	484.0	-0.696	0.05	
11.0	0.0	0.0	0.0	0.0	484.0	-0.693	0.029	
12.0	0.0	0.0	0.0	0.0	481.0	-0.693	0.044	
13.0	0.0	0.0	0.0	0.0	480.0	-0.686	0.123	
14.0	0.0	0.0	0.0	0.0	478.0	-0.686	0.076	
15.0	0.0	0.0	0.0	0.0	478.0	-0.686	0.044	
0.0	0.0	0.0	0.0	0.0	476.0	-0.686	-0.038	
1.0	0.0	0.0	0.0	0.0	475.0	-0.683	-0.114	
2.0	0.0	0.0	0.0	0.0	475.0	-0.683	-0.126	
3.0	0.0	0.0	0.0	0.0	474.0	-0.683	-0.091	
4.0	0.0	0.0	0.0	0.0	472.0	-0.677	-0.079	
5.0	0.0	0.0	0.0	0.0	470.0	-0.677	-0.038	
6.0	0.0	0.0	0.0	0.0	471.0	-0.677	-0.044	
7.0	0.0	0.0	0.0	0.0	471.0	-0.677	-0.085	
8.0	0.0	0.0	0.0	0.0	472.0	-0.674	0.097	
9.0	0.0	0.0	0.0	0.0	471.0	-0.67	0.606	
10.0	0.0	0.0	0.0	0.0	471.0	-0.67	0.683	
11.0	0.0	0.0	0.0	0.0	472.0	-0.67	0.167	
12.0	0.0	0.0	0.0	0.0	471.0	-0.67	-0.146	
13.0	0.0	0.0	0.0	0.0	469.0	-0.67	-0.173	
14.0	0.0	0.0	0.0	0.0	468.0	-0.67	-0.117	
15.0	0.0	0.0	0.0	0.0	467.0	-0.67	-0.132	
0.0	0.0	0.0	0.0	0.0	466.0	-0.674	-0.182	
1.0	0.0	0.0	0.0	0.0	466.0	-0.67	-0.135	
2.0	0.0	0.0	0.0	0.0	466.0	-0.67	-0.111	
3.0	0.0	0.0	0.0	0.0	464.0	-0.67	-0.132	
4.0	0.0	0.0	0.0	0.0	463.0	-0.67	-0.088	
5.0	0.0	0.0	0.0	0.0	461.0	-0.674	-0.091	
6.0	0.0	0.0	0.0	0.0	460.0	-0.677	-0.079	
7.0	0.0	0.0	0.0	0.0	460.0	-0.677	-0.038	
8.0	0.0	0.0	0.0	0.0	458.0	-0.68	-0.07	
9.0	0.0	0.0	0.0	0.0	457.0	-0.68	-0.044	
10.0	0.0	0.0	0.0	0.0	456.0	-0.683	-0.038	
11.0	0.0	0.0	0.0	0.0	455.0	-0.686	-0.047	
12.0	0.0	0.0	0.0	0.0	454.0	-0.693	-0.026	
13.0	0.0	0.0	0.0	0.0	454.0	-0.699	-0.009	
14.0	0.0	0.0	0.0	0.0	455.0	-0.699	-0.015	
15.0	0.0	0.0	0.0	0.0	455.0	-0.709	-0.023	
0.0	0.0	0.0	0.0	0.0	454.0	-0.712	0.021	
1.0	0.0	0.0	0.0	0.0	454.0	-0.719	0.023	
2.0	0.0	0.0	0.0	0.0	455.0	-0.725	0.026	
3.0	0.0	0.0	0.0	0.0	456.0	-0.728	0.044	
4.0	0.0	0.0	0.0	0.0	456.0	-0.738	0.064	
5.0	0.0	0.0	0.0	0.0	459.0	-0.741	0.111	
6.0	0.0	0.0	0.0	0.0	463.0	-0.748	0.062	
7.0	0.0	0.0	0.0	0.0	472.0	-0.751	0.079	
8.0	0.0	0.0	0.0	0.0	480.0	-0.754	0.105	
9.0	0.0	0.0	0.0	0.0	492.0	-0.757	0.094	
10.0	0.0	0.0	0.0	0.0	504.0	-0.764	0.082	
11.0	0.0	0.0	0.0	0.0	516.0	-0.764	0.044	
12.0	0.0	0.0	0.0	0.0	527.0	-0.77	-0.015	
13.0	0.0	0.0	0.0	0.0	538.0	-0.77	-0.123	
14.0	0.0	0.0	0.0	0.0	550.0	-0.777	-0.146	
15.0	0.0	0.0	0.0	0.0	560.0	-0.78	-0.161	
0.0	0.0	0.0	0.0	0.0	567.0	-0.78	-0.19	
1.0	0.0	0.0	0.0	0.0	572.0	-0.783	-0.193	
2.0	0.0	0.0	0.0	0.0	577.0	-0.786	-0.152	
3.0	0.0	0.0	0.0	0.0	578.0	-0.79	-0.129	
4.0	0.0	0.0	0.0	0.0	579.0	-0.79	-0.141	
5.0	0.0	0.0	0.0	0.0	582.0	-0.79	-0.097	
6.0	0.0	0.0	0.0	0.0	584.0	-0.786	-0.094	
7.0	0.0	0.0	0.0	0.0	588.0	-0.786	-0.079	
8.0	0.0	0.0	0.0	0.0	593.0	-0.786	-0.038	
9.0	0.0	0.0	0.0	0.0	596.0	-0.783	-0.032	
10.0	0.0	0.0	0.0	0.0	601.0	-0.78	-0.044	
11.0	0.0	0.0	0.0	0.0	606.0	-0.78	-0.073	
12.0	0.0	0.0	0.0	0.0	611.0	-0.773	-0.053	
13.0	0.0	0.0	0.0	0.0	617.0	-0.767	-0.029	
14.0	0.0	0.0	0.0	0.0	621.0	-0.757	-0.009	
15.0	0.0	0.0	0.0	0.0	622.0	-0.751	-0.044	
0.0	0.0	0.0	0.0	0.0	624.0	-0.744	-0.023	
1.0	0.0	0.0	0.0	0.0	624.0	-0.741	-0.021	
2.0	0.0	0.0	0.0	0.0	620.0	-0.738	-0.018	
3.0	0.0	0.0	0.0	0.0	615.0	-0.732	-0.015	
4.0	0.0	0.0	0.0	0.0	612.0	-0.728	0.006	
5.0	0.0	0.0	0.0	0.0	608.0	-0.725	-0.006	
6.0	0.0	0.0	0.0	0.0	601.0	-0.722	0.035	
7.0	0.0	0.0	0.0	0.0	594.0	-0.719	0.0	
8.0	0.0	0.0	0.0	0.0	586.0	-0.719	-0.012	
9.0	0.0	0.0	0.0	0.0	579.0	-0.715	-0.006	
10.0	0.0	0.0	0.0	0.0	572.0	-0.712	-0.006	
11.0	0.0	0.0	0.0	0.0	567.0	-0.709	0.0	
12.0	0.0	0.0	0.0	0.0	566.0	-0.709	-0.015	
13.0	0.0	0.0	0.0	0.0	564.0	-0.706	-0.012	
14.0	0.0	0.0	0.0	0.0	563.0	-0.703	-0.006	
15.0	0.0	0.0	0.0	0.0	563.0	-0.699	-0.003	
0.0	0.0	0.0	0.0	0.0	562.0	-0.699	-0.006	
1.0	0.0	0.0	0.0	0.0	561.0	-0.693	-0.032	
2.0	0.0	0.0	0.0	0.0	561.0	-0.686	0.006	
3.0	0.0	0.0	0.0	0.0	562.0	-0.683	0.015	
4.0	0.0	0.0	0.0	0.0	561.0	-0.677	-0.038	
5.0	0.0	0.0	0.0	0.0	557.0	-0.67	-0.026	
6.0	0.0	0.0	0.0	0.0	553.0	-0.661	0.009	
7.0	0.0	0.0	0.0	0.0	549.0	-0.651	-0.026	
8.0	0.0	0.0	0.0	0.0	545.0	-0.641	0.006	
9.0	0.0	0.0	0.0	0.0	541.0	-0.632	0.006	
10.0	0.0	0.0	0.0	0.0	537.0	-0.622	0.006	
11.0	0.0	0.0	0.0	0.0	534.0	-0.609	0.009	
12.0	0.0	0.0	0.0	0.0	531.0	-0.599	0.026	
13.0	0.0	0.0	0.0	0.0	530.0	-0.587	0.018	
14.0	0.0	0.0	0.0	0.0	528.0	-0.58	0.041	
15.0	0.0	0.0	0.0	0.0	525.0	-0.57	0.053	
0.0	0.0	0.0	0.0	0.0	523.0	-0.558	-0.012	
1.0	0.0	0.0	0.0	0.0	518.0	-0.548	-0.012	
2.0	0.0	0.0	0.0	0.0	515.0	-0.541	0.018	
3.0	0.0	0.0	0.0	0.0	514.0	-0.532	0.05	
4.0	0.0	0.0	0.0	0.0	512.0	-0.522	0.0	
5.0	0.0	0.0	0.0	0.0	511.0	-0.512	0.026	
6.0	0.0	0.0	0.0	0.0	511.0	-0.503	0.018	
7.0	0.0	0.0	0.0	0.0	511.0	-0.493	0.015	
8.0	0.0	0.0	0.0	0.0	511.0	-0.48	-0.012	
9.0	0.0	0.0	0.0	0.0	508.0	-0.474	-0.012	
10.0	0.0	0.0	0.0	0.0	508.0	-0.467	0.035	
11.0	0.0	0.0	0.0	0.0	506.0	-0.458	0.018	
12.0	0.0	0.0	0.0	0.0	504.0	-0.451	0.035	
13.0	0.0	0.0	0.0	0.0	502.0	-0.438	0.041	
14.0	0.0	0.0	0.0	0.0	501.0	-0.432	0.023	
15.0	0.0	0.0	0.0	0.0	499.0	-0.422	0.003	
0.0	0.0	0.0	0.0	0.0	500.0	-0.413	0.059	
1.0	0.0	0.0	0.0	0.0	500.0	-0.406	0.035	
2.0	0.0	0.0	0.0	0.0	500.0	-0.396	0.035	
3.0	0.0	0.0	0.0	0.0	499.0	-0.39	0.012	
4.0	0.0	0.0	0.0	0.0	498.0	-0.38	0.009	
5.0	0.0	0.0	0.0	0.0	496.0	-0.371	0.012	
6.0	0.0	0.0	0.0	0.0	495.0	-0.361	0.021	
7.0	0.0	0.0	0.0	0.0	494.0	-0.351	0.044	
8.0	0.0	0.0	0.0	0.0	490.0	-0.342	0.021	
9.0	0.0	0.0	0.0	0.0	488.0	-0.332	0.026	
10.0	0.0	0.0	0.0	0.0	488.0	-0.322	0.0	
11.0	0.0	0.0	0.0	0.0	486.0	-0.316	-0.006	
12.0	0.0	0.0	0.0	0.0	485.0	-0.306	0.003	
13.0	0.0	0.0	0.0	0.0	484.0	-0.3	0.018	
14.0	0.0	0.0	0.0	0.0	482.0	-0.29	0.009	
15.0	0.0	0.0	0.0	0.0	480.0	-0.287	-0.006	
0.0	0.0	0.0	0.0	0.0	480.0	-0.28	0.003	
1.0	0.0	0.0	0.0	0.0	477.0	-0.271	0.038	
2.0	0.0	0.0	0.0	0.0	476.0	-0.267	0.064	
3.0	0.0	0.0	0.0	0.0	475.0	-0.264	0.056	
4.0	0.0	0.0	0.0	0.0	476.0	-0.261	0.079	
5.0	0.0	0.0	0.0	0.0	476.0	-0.258	0.062	
6.0	0.0	0.0	0.0	0.0	474.0	-0.255	0.044	
7.0	0.0	0.0	0.0	0.0	476.0	-0.255	-0.015	
8.0	0.0	0.0	0.0	0.0	475.0	-0.251	-0.038	
9.0	0.0	0.0	0.0	0.0	473.0	-0.251	-0.091	
10.0	0.0	0.0	0.0	0.0	472.0	-0.248	-0.103	
11.0	0.0	0.0	0.0	0.0	471.0	-0.248	-0.085	
12.0	0.0	0.0	0.0	0.0	469.0	-0.248	-0.088	
13.0	0.0	0.0	0.0	0.0	467.0	-0.248	-0.067	
14.0	0.0	0.0	0.0	0.0	465.0	-0.245	-0.085	
15.0	0.0	0.0	0.0	0.0	464.0	-0.245	-0.067	
0.0	0.0	0.0	0.0	0.0	463.0	-0.242	-0.073	
1.0	0.0	0.0	0.0	0.0	462.0	-0.242	0.19	
2.0	0.0	0.0	0.0	0.0	460.0	-0.242	0.659	
3.0	0.0	0.0	0.0	0.0	459.0	-0.238	0.624	
4.0	0.0	0.0	0.0	0.0	454.0	-0.238	0.006	
5.0	0.0	0.0	0.0	0.0	449.0	-0.238	-0.176	
6.0	0.0	0.0	0.0	0.0	449.0	-0.238	-0.129	
7.0	0.0	0.0	0.0	0.0	448.0	-0.242	-0.132	
8.0	0.0	0.0	0.0	0.0	447.0	-0.245	-0.094	
9.0	0.0	0.0	0.0	0.0	449.0	-0.248	-0.103	
10.0	0.0	0.0	0.0	0.0	452.0	-0.251	-0.105	
11.0	0.0	0.0	0.0	0.0	454.0	-0.255	-0.088	
12.0	0.0	0.0	0.0	0.0	456.0	-0.258	-0.064	
13.0	0.0	0.0	0.0	0.0	458.0	-0.261	-0.059	
14.0	0.0	0.0	0.0	0.0	458.0	-0.264	-0.056	
15.0	0.0	0.0	0.0	0.0	458.0	-0.271	-0.029	
0.0	0.0	0.0	0.0	0.0	457.0	-0.277	-0.026	
1.0	0.0	0.0	0.0	0.0	455.0	-0.284	0.021	
2.0	0.0	0.0	0.0	0.0	455.0	-0.29	0.0	
3.0	0.0	0.0	0.0	0.0	454.0	-0.296	-0.006	
4.0	0.0	0.0	0.0	0.0	454.0	-0.306	-0.003	
5.0	0.0	0.0	0.0	0.0	454.0	-0.316	-0.003	
6.0	0.0	0.0	0.0	0.0	454.0	-0.325	0.009	
7.0	0.0	0.0	0.0	0.0	453.0	-0.335	-0.023	
8.0	0.0	0.0	0.0	0.0	451.0	-0.348	0.021	
9.0	0.0	0.0	0.0	0.0	449.0	-0.361	0.018	
10.0	0.0	0.0	0.0	0.0	449.0	-0.371	0.015	
11.0	0.0	0.0	0.0	0.0	451.0	-0.383	0.032	
12.0	0.0	0.0	0.0	0.0	454.0	-0.393	0.038	
13.0	0.0	0.0	0.0	0.0	455.0	-0.406	0.067	
14.0	0.0	0.0	0.0	0.0	460.0	-0.419	0.073	
15.0	0.0	0.0	0.0	0.0	468.0	-0.429	0.032	
0.0	0.0	0.0	0.0	0.0	478.0	-0.442	0.053	
1.0	0.0	0.0	0.0	0.0	489.0	-0.454	0.07	
2.0	0.0	0.0	0.0	0.0	500.0	-0.464	0.018	
3.0	0.0	0.0	0.0	0.0	513.0	-0.471	0.021	
4.0	0.0	0.0	0.0	0.0	526.0	-0.48	-0.009	
5.0	0.0	0.0	0.0	0.0	539.0	-0.49	-0.067	
6.0	0.0	0.0	0.0	0.0	551.0	-0.496	-0.105	
7.0	0.0	0.0	0.0	0.0	562.0	-0.503	-0.176	
8.0	0.0	0.0	0.0	0.0	570.0	-0.506	-0.202	
9.0	0.0	0.0	0.0	0.0	575.0	-0.512	-0.208	
10.0	0.0	0.0	0.0	0.0	579.0	-0.516	-0.17	
11.0	0.0	0.0	0.0	0.0	581.0	-0.516	-0.152	
12.0	0.0	0.0	0.0	0.0	582.0	-0.516	-0.146	
13.0	0.0	0.0	0.0	0.0	582.0	-0.516	-0.111	
14.0	0.0	0.0	0.0	0.0	583.0	-0.516	-0.117	
15.0	0.0	0.0	0.0	0.0	584.0	-0.509	-0.123	
0.0	0.0	0.0	0.0	0.0	584.0	-0.506	-0.082	
1.0	0.0	0.0	0.0	0.0	584.0	-0.503	-0.076	
2.0	0.0	0.0	0.0	0.0	587.0	-0.493	-0.059	
3.0	0.0	0.0	0.0	0.0	593.0	-0.487	-0.029	
4.0	0.0	0.0	0.0	0.0	598.0	-0.477	-0.023	
5.0	0.0	0.0	0.0	0.0	603.0	-0.467	-0.035	
6.0	0.0	0.0	0.0	0.0	609.0	-0.461	0.032	
7.0	0.0	0.0	0.0	0.0	615.0	-0.451	0.021	
8.0	0.0	0.0	0.0	0.0	618.0	-0.442	-0.009	
9.0	0.0	0.0	0.0	0.0	621.0	-0.429	0.032	
10.0	0.0	0.0	0.0	0.0	622.0	-0.419	0.082	
11.0	0.0	0.0	0.0	0.0	624.0	-0.413	0.041	
12.0	0.0	0.0	0.0	0.0	621.0	-0.4	0.067	
13.0	0.0	0.0	0.0	0.0	615.0	-0.393	0.085	
14.0	0.0	0.0	0.0	0.0	609.0	-0.38	0.064	
15.0	0.0	0.0	0.0	0.0	604.0	-0.374	0.059	
0.0	0.0	0.0	0.0	0.0	595.0	-0.364	0.032	
1.0	0.0	0.0	0.0	0.0	587.0	-0.351	0.0	
2.0	0.0	0.0	0.0	0.0	580.0	-0.342	0.035	
3.0	0.0	0.0	0.0	0.0	576.0	-0.332	-0.015	
4.0	0.0	0.0	0.0	0.0	569.0	-0.322	0.032	
5.0	0.0	0.0	0.0	0.0	564.0	-0.313	0.05	
6.0	0.0	0.0	0.0	0.0	559.0	-0.3	0.021	
7.0	0.0	0.0	0.0	0.0	555.0	-0.29	0.015	
8.0	0.0	0.0	0.0	0.0	551.0	-0.277	-0.003	
9.0	0.0	0.0	0.0	0.0	550.0	-0.267	0.012	
10.0	0.0	0.0	0.0	0.0	552.0	-0.251	0.026	
11.0	0.0	0.0	0.0	0.0	552.0	-0.238	0.009	
12.0	0.0	0.0	0.0	0.0	552.0	-0.222	-0.003	
13.0	0.0	0.0	0.0	0.0	552.0	-0.206	-0.003	
14.0	0.0	0.0	0.0	0.0	553.0	-0.193	-0.021	
15.0	0.0	0.0	0.0	0.0	552.0	-0.177	-0.026	
0.0	0.0	0.0	0.0	0.0	549.0	-0.158	-0.029	
1.0	0.0	0.0	0.0	0.0	548.0	-0.142	-0.021	
2.0	0.0	0.0	0.0	0.0	547.0	-0.126	-0.003	
3.0	0.0	0.0	0.0	0.0	545.0	-0.106	-0.029	
4.0	0.0	0.0	0.0	0.0	541.0	-0.087	-0.079	
5.0	0.0	0.0	0.0	0.0	536.0	-0.071	-0.067	
6.0	0.0	0.0	0.0	0.0	533.0	-0.055	-0.085	
7.0	0.0	0.0	0.0	0.0	530.0	-0.039	-0.091	
8.0	0.0	0.0	0.0	0.0	526.0	-0.023	-0.094	
9.0	0.0	0.0	0.0	0.0	523.0	-0.006	-0.111	
10.0	0.0	0.0	0.0	0.0	520.0	0.006	-0.108	
11.0	0.0	0.0	0.0	0.0	519.0	0.019	-0.059	
12.0	0.0	0.0	0.0	0.0	516.0	0.029	-0.073	
13.0	0.0	0.0	0.0	0.0	513.0	0.042	-0.088	
14.0	0.0	0.0	0.0	0.0	512.0	0.052	-0.105	
15.0	0.0	0.0	0.0	0.0	511.0	0.061	-0.088	
0.0	0.0	0.0	0.0	0.0	509.0	0.068	-0.047	
1.0	0.0	0.0	0.0	0.0	509.0	0.077	-0.047	
2.0	0.0	0.0	0.0	0.0	510.0	0.081	-0.062	
3.0	0.0	0.0	0.0	0.0	510.0	0.09	-0.047	
4.0	0.0	0.0	0.0	0.0	509.0	0.093	-0.015	
5.0	0.0	0.0	0.0	0.0	508.0	0.1	-0.059	
6.0	0.0	0.0	0.0	0.0	508.0	0.103	-0.021	
7.0	0.0	0.0	0.0	0.0	507.0	0.106	0.041	
8.0	0.0	0.0	0.0	0.0	505.0	0.11	0.032	
9.0	0.0	0.0	0.0	0.0	505.0	0.113	0.009	
10.0	0.0	0.0	0.0	0.0	505.0	0.113	0.009	
11.0	0.0	0.0	0.0	0.0	504.0	0.116	0.05	
12.0	0.0	0.0	0.0	0.0	503.0	0.116	0.018	
13.0	0.0	0.0	0.0	0.0	502.0	0.113	0.056	
14.0	0.0	0.0	0.0	0.0	502.0	0.11	0.038	
15.0	0.0	0.0	0.0	0.0	503.0	0.106	0.082	
0.0	0.0	0.0	0.0	0.0	504.0	0.1	0.088	
1.0	0.0	0.0	0.0	0.0	504.0	0.09	0.056	
2.0	0.0	0.0	0.0	0.0	504.0	0.074	0.094	
3.0	0.0	0.0	0.0	0.0	504.0	0.055	0.044	
4.0	0.0	0.0	0.0	0.0	504.0	0.035	0.032	
5.0	0.0	0.0	0.0	0.0	502.0	0.01	0.012	
6.0	0.0	0.0	0.0	0.0	500.0	-0.016	-0.041	
7.0	0.0	0.0	0.0	0.0	499.0	-0.045	-0.038	
8.0	0.0	0.0	0.0	0.0	496.0	-0.077	-0.023	
9.0	0.0	0.0	0.0	0.0	494.0	-0.106	-0.009	
10.0	0.0	0.0	0.0	0.0	494.0	-0.135	0.006	
11.0	0.0	0.0	0.0	0.0	492.0	-0.168	0.029	
12.0	0.0	0.0	0.0	0.0	489.0	-0.2	-0.006	
13.0	0.0	0.0	0.0	0.0	487.0	-0.232	0.167	
14.0	0.0	0.0	0.0	0.0	486.0	-0.258	0.671	
15.0	0.0	0.0	0.0	0.0	485.0	-0.287	0.729	
0.0	0.0	0.0	0.0	0.0	482.0	-0.313	0.305	
1.0	0.0	0.0	0.0	0.0	480.0	-0.338	0.006	
2.0	0.0	0.0	0.0	0.0	478.0	-0.364	-0.05	
3.0	0.0	0.0	0.0	0.0	477.0	-0.387	-0.105	
4.0	0.0	0.0	0.0	0.0	474.0	-0.409	-0.114	
5.0	0.0	0.0	0.0	0.0	471.0	-0.435	-0.088	
6.0	0.0	0.0	0.0	0.0	469.0	-0.454	-0.056	
7.0	0.0	0.0	0.0	0.0	468.0	-0.477	-0.067	
8.0	0.0	0.0	0.0	0.0	467.0	-0.493	-0.1	
9.0	0.0	0.0	0.0	0.0	466.0	-0.516	-0.056	
10.0	0.0	0.0	0.0	0.0	465.0	-0.535	-0.062	
11.0	0.0	0.0	0.0	0.0	465.0	-0.558	-0.038	
12.0	0.0	0.0	0.0	0.0	464.0	-0.58	-0.073	
13.0	0.0	0.0	0.0	0.0	464.0	-0.599	-0.032	
14.0	0.0	0.0	0.0	0.0	465.0	-0.619	-0.015	
15.0	0.0	0.0	0.0	0.0	466.0	-0.641	-0.05	
0.0	0.0	0.0	0.0	0.0	464.0	-0.661	0.006	
1.0	0.0	0.0	0.0	0.0	464.0	-0.683	0.009	
2.0	0.0	0.0	0.0	0.0	464.0	-0.706	0.006	
3.0	0.0	0.0	0.0	0.0	462.0	-0.725	0.035	
4.0	0.0	0.0	0.0	0.0	460.0	-0.748	0.062	
5.0	0.0	0.0	0.0	0.0	459.0	-0.77	0.035	
6.0	0.0	0.0	0.0	0.0	455.0	-0.79	0.056	
7.0	0.0	0.0	0.0	0.0	454.0	-0.812	0.056	
8.0	0.0	0.0	0.0	0.0	452.0	-0.831	0.073	
9.0	0.0	0.0	0.0	0.0	452.0	-0.854	0.029	
10.0	0.0	0.0	0.0	0.0	455.0	-0.87	0.117	
11.0	0.0	0.0	0.0	0.0	458.0	-0.893	0.079	
12.0	0.0	0.0	0.0	0.0	464.0	-0.912	0.053	
13.0	0.0	0.0	0.0	0.0	471.0	-0.928	0.047	
14.0	0.0	0.0	0.0	0.0	480.0	-0.947	0.053	
15.0	0.0	0.0	0.0	0.0	492.0	-0.964	0.021	
0.0	0.0	0.0	0.0	0.0	505.0	-0.983	-0.023	
1.0	0.0	0.0	0.0	0.0	519.0	-0.996	-0.067	
2.0	0.0	0.0	0.0	0.0	532.0	-1.012	-0.138	
3.0	0.0	0.0	0.0	0.0	545.0	-1.025	-0.246	
4.0	0.0	0.0	0.0	0.0	556.0	-1.041	-0.22	
5.0	0.0	0.0	0.0	0.0	566.0	-1.057	-0.24	
6.0	0.0	0.0	0.0	0.0	572.0	-1.067	-0.237	
7.0	0.0	0.0	0.0	0.0	578.0	-1.083	-0.217	
8.0	0.0	0.0	0.0	0.0	582.0	-1.096	-0.199	
9.0	0.0	0.0	0.0	0.0	584.0	-1.112	-0.185	
10.0	0.0	0.0	0.0	0.0	584.0	-1.118	-0.17	
11.0	0.0	0.0	0.0	0.0	586.0	-1.134	-0.132	
12.0	0.0	0.0	0.0	0.0	587.0	-1.144	-0.167	
13.0	0.0	0.0	0.0	0.0	588.0	-1.16	-0.152	
14.0	0.0	0.0	0.0	0.0	592.0	-1.176	-0.167	
15.0	0.0	0.0	0.0	0.0	598.0	-1.186	-0.152	
0.0	0.0	0.0	0.0	0.0	603.0	-1.199	-0.123	
1.0	0.0	0.0	0.0	0.0	607.0	-1.215	-0.129	
2.0	0.0	0.0	0.0	0.0	612.0	-1.228	-0.1	
3.0	0.0	0.0	0.0	0.0	618.0	-1.241	-0.111	
4.0	0.0	0.0	0.0	0.0	622.0	-1.254	-0.1	
5.0	0.0	0.0	0.0	0.0	624.0	-1.267	-0.097	
6.0	0.0	0.0	0.0	0.0	627.0	-1.279	-0.082	
7.0	0.0	0.0	0.0	0.0	627.0	-1.292	-0.117	
8.0	0.0	0.0	0.0	0.0	623.0	-1.305	-0.073	
9.0	0.0	0.0	0.0	0.0	619.0	-1.321	-0.07	
10.0	0.0	0.0	0.0	0.0	615.0	-1.337	-0.029	
11.0	0.0	0.0	0.0	0.0	609.0	-1.347	-0.1	
12.0	0.0	0.0	0.0	0.0	600.0	-1.36	-0.029	
13.0	0.0	0.0	0.0	0.0	591.0	-1.373	-0.029	
14.0	0.0	0.0	0.0	0.0	584.0	-1.389	-0.079	
15.0	0.0	0.0	0.0	0.0	578.0	-1.395	-0.059	
0.0	0.0	0.0	0.0	0.0	573.0	-1.402	-0.012	
1.0	0.0	0.0	0.0	0.0	568.0	-1.415	-0.015	
2.0	0.0	0.0	0.0	0.0	566.0	-1.424	-0.079	
3.0	0.0	0.0	0.0	0.0	564.0	-1.428	-0.062	
4.0	0.0	0.0	0.0	0.0	563.0	-1.434	-0.062	
5.0	0.0	0.0	0.0	0.0	563.0	-1.434	0.003	
6.0	0.0	0.0	0.0	0.0	561.0	-1.441	-0.041	
7.0	0.0	0.0	0.0	0.0	561.0	-1.437	-0.053	
8.0	0.0	0.0	0.0	0.0	560.0	-1.441	0.003	
9.0	0.0	0.0	0.0	0.0	558.0	-1.447	-0.003	
10.0	0.0	0.0	0.0	0.0	558.0	-1.437	0.003	
11.0	0.0	0.0	0.0	0.0	556.0	-1.434	-0.023	
12.0	0.0	0.0	0.0	0.0	553.0	-1.434	0.012	
13.0	0.0	0.0	0.0	0.0	550.0	-1.431	0.0	
14.0	0.0	0.0	0.0	0.0	546.0	-1.421	-0.021	
15.0	0.0	0.0	0.0	0.0	542.0	-1.415	-0.041	
0.0	0.0	0.0	0.0	0.0	539.0	-1.408	0.0	
1.0	0.0	0.0	0.0	0.0	534.0	-1.399	0.015	
2.0	0.0	0.0	0.0	0.0	531.0	-1.389	0.023	
3.0	0.0	0.0	0.0	0.0	530.0	-1.379	-0.018	
4.0	0.0	0.0	0.0	0.0	528.0	-1.376	0.0	
5.0	0.0	0.0	0.0	0.0	524.0	-1.363	0.021	
6.0	0.0	0.0	0.0	0.0	521.0	-1.354	0.009	
7.0	0.0	0.0	0.0	0.0	517.0	-1.35	0.012	
8.0	0.0	0.0	0.0	0.0	513.0	-1.337	-0.012	
9.0	0.0	0.0	0.0	0.0	511.0	-1.328	0.041	
10.0	0.0	0.0	0.0	0.0	508.0	-1.321	0.009	
11.0	0.0	0.0	0.0	0.0	509.0	-1.318	0.0	
12.0	0.0	0.0	0.0	0.0	507.0	-1.312	0.035	
13.0	0.0	0.0	0.0	0.0	504.0	-1.305	0.035	
14.0	0.0	0.0	0.0	0.0	502.0	-1.302	0.067	
15.0	0.0	0.0	0.0	0.0	502.0	-1.299	0.012	
0.0	0.0	0.0	0.0	0.0	500.0	-1.302	0.032	
1.0	0.0	0.0	0.0	0.0	499.0	-1.292	0.041	
2.0	0.0	0.0	0.0	0.0	499.0	-1.289	-0.006	
3.0	0.0	0.0	0.0	0.0	499.0	-1.286	0.044	
4.0	0.0	0.0	0.0	0.0	496.0	-1.279	0.085	
5.0	0.0	0.0	0.0	0.0	493.0	-1.276	0.035	
6.0	0.0	0.0	0.0	0.0	492.0	-1.276	0.062	
7.0	0.0	0.0	0.0	0.0	490.0	-1.267	0.1	
8.0	0.0	0.0	0.0	0.0	487.0	-1.257	0.079	
9.0	0.0	0.0	0.0	0.0	486.0	-1.247	0.044	
10.0	0.0	0.0	0.0	0.0	483.0	-1.237	0.003	
11.0	0.0	0.0	0.0	0.0	480.0	-1.225	-0.035	
12.0	0.0	0.0	0.0	0.0	478.0	-1.215	-0.053	
13.0	0.0	0.0	0.0	0.0	476.0	-1.202	-0.053	
14.0	0.0	0.0	0.0	0.0	473.0	-1.192	-0.073	
15.0	0.0	0.0	0.0	0.0	471.0	-1.183	-0.059	
0.0	0.0	0.0	0.0	0.0	470.0	-1.167	-0.015	
1.0	0.0	0.0	0.0	0.0	470.0	-1.15	-0.044	
2.0	0.0	0.0	0.0	0.0	469.0	-1.138	-0.044	
3.0	0.0	0.0	0.0	0.0	470.0	-1.118	0.164	
4.0	0.0	0.0	0.0	0.0	469.0	-1.099	0.639	
5.0	0.0	0.0	0.0	0.0	466.0	-1.083	0.671	
6.0	0.0	0.0	0.0	0.0	465.0	-1.067	0.088	
7.0	0.0	0.0	0.0	0.0	464.0	-1.054	-0.129	
8.0	0.0	0.0	0.0	0.0	463.0	-1.041	-0.155	
9.0	0.0	0.0	0.0	0.0	463.0	-1.025	-0.167	
10.0	0.0	0.0	0.0	0.0	463.0	-1.012	-0.12	
11.0	0.0	0.0	0.0	0.0	463.0	-1.002	-0.085	
12.0	0.0	0.0	0.0	0.0	463.0	-0.993	-0.105	
13.0	0.0	0.0	0.0	0.0	464.0	-0.983	-0.059	
14.0	0.0	0.0	0.0	0.0	462.0	-0.976	-0.041	
15.0	0.0	0.0	0.0	0.0	461.0	-0.967	-0.044	
0.0	0.0	0.0	0.0	0.0	460.0	-0.96	-0.021	
1.0	0.0	0.0	0.0	0.0	458.0	-0.957	-0.029	
2.0	0.0	0.0	0.0	0.0	456.0	-0.954	0.032	
3.0	0.0	0.0	0.0	0.0	456.0	-0.951	-0.006	
4.0	0.0	0.0	0.0	0.0	455.0	-0.947	0.006	
5.0	0.0	0.0	0.0	0.0	454.0	-0.944	0.044	
6.0	0.0	0.0	0.0	0.0	453.0	-0.941	0.044	
7.0	0.0	0.0	0.0	0.0	453.0	-0.941	0.012	
8.0	0.0	0.0	0.0	0.0	451.0	-0.941	0.056	
9.0	0.0	0.0	0.0	0.0	451.0	-0.938	0.073	
10.0	0.0	0.0	0.0	0.0	452.0	-0.941	0.047	
11.0	0.0	0.0	0.0	0.0	453.0	-0.941	0.073	
12.0	0.0	0.0	0.0	0.0	452.0	-0.941	0.088	
13.0	0.0	0.0	0.0	0.0	451.0	-0.941	0.064	
14.0	0.0	0.0	0.0	0.0	450.0	-0.944	0.067	
15.0	0.0	0.0	0.0	0.0	451.0	-0.947	0.088	
0.0	0.0	0.0	0.0	0.0	454.0	-0.951	0.12	
1.0	0.0	0.0	0.0	0.0	460.0	-0.954	0.108	
2.0	0.0	0.0	0.0	0.0	466.0	-0.957	0.111	
3.0	0.0	0.0	0.0	0.0	476.0	-0.957	0.135	
4.0	0.0	0.0	0.0	0.0	487.0	-0.957	0.114	
5.0	0.0	0.0	0.0	0.0	499.0	-0.96	0.085	
6.0	0.0	0.0	0.0	0.0	512.0	-0.96	0.038	
7.0	0.0	0.0	0.0	0.0	523.0	-0.964	-0.009	
8.0	0.0	0.0	0.0	0.0	536.0	-0.96	-0.085	
9.0	0.0	0.0	0.0	0.0	549.0	-0.96	-0.155	
10.0	0.0	0.0	0.0	0.0	559.0	-0.96	-0.173	
11.0	0.0	0.0	0.0	0.0	568.0	-0.954	-0.17	
12.0	0.0	0.0	0.0	0.0	573.0	-0.954	-0.135	
13.0	0.0	0.0	0.0	0.0	577.0	-0.951	-0.146	
14.0	0.0	0.0	0.0	0.0	582.0	-0.944	-0.094	
15.0	0.0	0.0	0.0	0.0	585.0	-0.935	-0.073	
0.0	0.0	0.0	0.0	0.0	586.0	-0.931	-0.064	
1.0	0.0	0.0	0.0	0.0	586.0	-0.925	-0.044	
2.0	0.0	0.0	0.0	0.0	588.0	-0.918	-0.003	
3.0	0.0	0.0	0.0	0.0	593.0	-0.915	-0.012	
4.0	0.0	0.0	0.0	0.0	597.0	-0.906	0.029	
5.0	0.0	0.0	0.0	0.0	601.0	-0.899	-0.015	
6.0	0.0	0.0	0.0	0.0	607.0	-0.893	0.032	
7.0	0.0	0.0	0.0	0.0	612.0	-0.886	0.009	
8.0	0.0	0.0	0.0	0.0	617.0	-0.877	0.062	
9.0	0.0	0.0	0.0	0.0	620.0	-0.867	0.059	
10.0	0.0	0.0	0.0	0.0	622.0	-0.854	0.056	
11.0	0.0	0.0	0.0	0.0	623.0	-0.851	0.038	
12.0	0.0	0.0	0.0	0.0	623.0	-0.841	0.082	
13.0	0.0	0.0	0.0	0.0	619.0	-0.831	0.076	
14.0	0.0	0.0	0.0	0.0	616.0	-0.822	0.059	
15.0	0.0	0.0	0.0	0.0	611.0	-0.815	0.056	
0.0	0.0	0.0	0.0	0.0	605.0	-0.809	0.067	
1.0	0.0	0.0	0.0	0.0	598.0	-0.802	0.056	
2.0	0.0	0.0	0.0	0.0	592.0	-0.796	0.076	
3.0	0.0	0.0	0.0	0.0	584.0	-0.79	0.0	
4.0	0.0	0.0	0.0	0.0	576.0	-0.786	0.018	
5.0	0.0	0.0	0.0	0.0	568.0	-0.78	0.023	
6.0	0.0	0.0	0.0	0.0	561.0	-0.773	-0.012	
7.0	0.0	0.0	0.0	0.0	556.0	-0.767	-0.012	
8.0	0.0	0.0	0.0	0.0	552.0	-0.761	0.0	
9.0	0.0	0.0	0.0	0.0	551.0	-0.754	0.0	
10.0	0.0	0.0	0.0	0.0	549.0	-0.751	0.018	
11.0	0.0	0.0	0.0	0.0	548.0	-0.741	0.003	
12.0	0.0	0.0	0.0	0.0	546.0	-0.735	-0.003	
13.0	0.0	0.0	0.0	0.0	545.0	-0.732	-0.003	
14.0	0.0	0.0	0.0	0.0	543.0	-0.722	0.003	
15.0	0.0	0.0	0.0	0.0	542.0	-0.715	-0.018	
0.0	0.0	0.0	0.0	0.0	541.0	-0.709	0.003	
1.0	0.0	0.0	0.0	0.0	542.0	-0.699	0.012	
2.0	0.0	0.0	0.0	0.0	542.0	-0.69	0.026	
3.0	0.0	0.0	0.0	0.0	538.0	-0.68	-0.035	
4.0	0.0	0.0	0.0	0.0	536.0	-0.67	-0.003	
5.0	0.0	0.0	0.0	0.0	532.0	-0.661	0.0	
6.0	0.0	0.0	0.0	0.0	527.0	-0.645	0.003	
7.0	0.0	0.0	0.0	0.0	520.0	-0.635	0.018	
8.0	0.0	0.0	0.0	0.0	516.0	-0.625	0.0	
9.0	0.0	0.0	0.0	0.0	512.0	-0.612	0.029	
10.0	0.0	0.0	0.0	0.0	507.0	-0.599	0.026	
11.0	0.0	0.0	0.0	0.0	504.0	-0.59	0.029	
12.0	0.0	0.0	0.0	0.0	502.0	-0.577	0.012	
13.0	0.0	0.0	0.0	0.0	499.0	-0.567	0.009	
14.0	0.0	0.0	0.0	0.0	499.0	-0.558	-0.003	
15.0	0.0	0.0	0.0	0.0	498.0	-0.548	-0.006	
0.0	0.0	0.0	0.0	0.0	495.0	-0.541	0.003	
1.0	0.0	0.0	0.0	0.0	494.0	-0.532	-0.021	
2.0	0.0	0.0	0.0	0.0	493.0	-0.522	0.009	
3.0	0.0	0.0	0.0	0.0	492.0	-0.516	-0.015	
4.0	0.0	0.0	0.0	0.0	492.0	-0.506	0.012	
5.0	0.0	0.0	0.0	0.0	489.0	-0.496	0.0	
6.0	0.0	0.0	0.0	0.0	487.0	-0.487	-0.029	
7.0	0.0	0.0	0.0	0.0	486.0	-0.48	-0.006	
8.0	0.0	0.0	0.0	0.0	483.0	-0.474	0.044	
9.0	0.0	0.0	0.0	0.0	481.0	-0.467	0.023	
10.0	0.0	0.0	0.0	0.0	480.0	-0.464	-0.032	
11.0	0.0	0.0	0.0	0.0	479.0	-0.461	0.021	
12.0	0.0	0.0	0.0	0.0	478.0	-0.458	0.009	
13.0	0.0	0.0	0.0	0.0	476.0	-0.454	0.047	
14.0	0.0	0.0	0.0	0.0	475.0	-0.454	-0.006	
15.0	0.0	0.0	0.0	0.0	474.0	-0.451	-0.023	
0.0	0.0	0.0	0.0	0.0	472.0	-0.454	0.012	
1.0	0.0	0.0	0.0	0.0	472.0	-0.454	0.059	
2.0	0.0	0.0	0.0	0.0	472.0	-0.454	0.015	
3.0	0.0	0.0	0.0	0.0	472.0	-0.454	-0.006	
4.0	0.0	0.0	0.0	0.0	474.0	-0.458	0.018	
5.0	0.0	0.0	0.0	0.0	475.0	-0.461	0.012	
6.0	0.0	0.0	0.0	0.0	475.0	-0.464	0.0	
7.0	0.0	0.0	0.0	0.0	477.0	-0.464	-0.003	
8.0	0.0	0.0	0.0	0.0	478.0	-0.467	-0.056	
9.0	0.0	0.0	0.0	0.0	476.0	-0.471	0.0	
10.0	0.0	0.0	0.0	0.0	474.0	-0.477	0.015	
11.0	0.0	0.0	0.0	0.0	474.0	-0.477	-0.006	
12.0	0.0	0.0	0.0	0.0	472.0	-0.483	0.032	
13.0	0.0	0.0	0.0	0.0	470.0	-0.487	0.064	
14.0	0.0	0.0	0.0	0.0	469.0	-0.493	0.047	
15.0	0.0	0.0	0.0	0.0	467.0	-0.496	-0.018	
0.0	0.0	0.0	0.0	0.0	465.0	-0.5	-0.108	
1.0	0.0	0.0	0.0	0.0	462.0	-0.506	-0.108	
2.0	0.0	0.0	0.0	0.0	460.0	-0.509	-0.117	
3.0	0.0	0.0	0.0	0.0	458.0	-0.512	-0.146	
4.0	0.0	0.0	0.0	0.0	456.0	-0.516	-0.114	
5.0	0.0	0.0	0.0	0.0	455.0	-0.522	-0.105	
6.0	0.0	0.0	0.0	0.0	455.0	-0.525	-0.079	
7.0	0.0	0.0	0.0	0.0	455.0	-0.529	-0.105	
8.0	0.0	0.0	0.0	0.0	453.0	-0.535	-0.094	
9.0	0.0	0.0	0.0	0.0	452.0	-0.538	0.208	
10.0	0.0	0.0	0.0	0.0	450.0	-0.541	0.642	
11.0	0.0	0.0	0.0	0.0	451.0	-0.545	0.489	
12.0	0.0	0.0	0.0	0.0	448.0	-0.548	-0.029	
13.0	0.0	0.0	0.0	0.0	446.0	-0.551	-0.188	
14.0	0.0	0.0	0.0	0.0	445.0	-0.554	-0.243	
15.0	0.0	0.0	0.0	0.0	444.0	-0.561	-0.182	
0.0	0.0	0.0	0.0	0.0	443.0	-0.567	-0.129	
1.0	0.0	0.0	0.0	0.0	441.0	-0.57	-0.114	
2.0	0.0	0.0	0.0	0.0	440.0	-0.577	-0.12	
3.0	0.0	0.0	0.0	0.0	441.0	-0.583	-0.091	
4.0	0.0	0.0	0.0	0.0	440.0	-0.59	-0.108	
5.0	0.0	0.0	0.0	0.0	441.0	-0.596	-0.038	
6.0	0.0	0.0	0.0	0.0	442.0	-0.606	-0.023	
7.0	0.0	0.0	0.0	0.0	444.0	-0.616	0.003	
8.0	0.0	0.0	0.0	0.0	445.0	-0.622	-0.076	
9.0	0.0	0.0	0.0	0.0	446.0	-0.632	-0.035	
10.0	0.0	0.0	0.0	0.0	444.0	-0.645	0.009	
11.0	0.0	0.0	0.0	0.0	444.0	-0.651	0.056	
12.0	0.0	0.0	0.0	0.0	442.0	-0.664	-0.035	
13.0	0.0	0.0	0.0	0.0	440.0	-0.677	-0.003	
14.0	0.0	0.0	0.0	0.0	439.0	-0.686	0.064	
15.0	0.0	0.0	0.0	0.0	438.0	-0.703	0.023	
0.0	0.0	0.0	0.0	0.0	436.0	-0.715	0.041	
1.0	0.0	0.0	0.0	0.0	433.0	-0.728	0.012	
2.0	0.0	0.0	0.0	0.0	431.0	-0.744	0.044	
3.0	0.0	0.0	0.0	0.0	430.0	-0.757	0.07	
4.0	0.0	0.0	0.0	0.0	428.0	-0.77	0.088	
5.0	0.0	0.0	0.0	0.0	429.0	-0.79	0.064	
6.0	0.0	0.0	0.0	0.0	434.0	-0.802	0.091	
7.0	0.0	0.0	0.0	0.0	441.0	-0.815	0.091	
8.0	0.0	0.0	0.0	0.0	450.0	-0.828	0.12	
9.0	0.0	0.0	0.0	0.0	460.0	-0.844	0.1	
10.0	0.0	0.0	0.0	0.0	472.0	-0.854	0.056	
11.0	0.0	0.0	0.0	0.0	486.0	-0.87	0.062	
12.0	0.0	0.0	0.0	0.0	501.0	-0.88	-0.015	
13.0	0.0	0.0	0.0	0.0	513.0	-0.889	-0.035	
14.0	0.0	0.0	0.0	0.0	525.0	-0.899	-0.129	
15.0	0.0	0.0	0.0	0.0	536.0	-0.906	-0.19	
0.0	0.0	0.0	0.0	0.0	545.0	-0.915	-0.234	
1.0	0.0	0.0	0.0	0.0	549.0	-0.918	-0.264	
2.0	0.0	0.0	0.0	0.0	553.0	-0.918	-0.234	
3.0	0.0	0.0	0.0	0.0	556.0	-0.925	-0.226	
4.0	0.0	0.0	0.0	0.0	557.0	-0.928	-0.196	
5.0	0.0	0.0	0.0	0.0	556.0	-0.925	-0.176	
6.0	0.0	0.0	0.0	0.0	555.0	-0.922	-0.12	
7.0	0.0	0.0	0.0	0.0	555.0	-0.922	-0.17	
8.0	0.0	0.0	0.0	0.0	555.0	-0.915	-0.164	
9.0	0.0	0.0	0.0	0.0	556.0	-0.918	-0.114	
10.0	0.0	0.0	0.0	0.0	560.0	-0.909	-0.073	
11.0	0.0	0.0	0.0	0.0	565.0	-0.906	-0.123	
12.0	0.0	0.0	0.0	0.0	569.0	-0.902	-0.126	
13.0	0.0	0.0	0.0	0.0	572.0	-0.899	-0.094	
14.0	0.0	0.0	0.0	0.0	577.0	-0.902	-0.12	
15.0	0.0	0.0	0.0	0.0	580.0	-0.902	-0.041	
0.0	0.0	0.0	0.0	0.0	583.0	-0.906	-0.053	
1.0	0.0	0.0	0.0	0.0	586.0	-0.909	-0.015	
2.0	0.0	0.0	0.0	0.0	588.0	-0.915	-0.023	
3.0	0.0	0.0	0.0	0.0	587.0	-0.925	-0.082	
4.0	0.0	0.0	0.0	0.0	584.0	-0.931	-0.053	
5.0	0.0	0.0	0.0	0.0	579.0	-0.941	-0.053	
6.0	0.0	0.0	0.0	0.0	573.0	-0.954	-0.047	
7.0	0.0	0.0	0.0	0.0	565.0	-0.964	-0.062	
8.0	0.0	0.0	0.0	0.0	560.0	-0.97	0.021	
9.0	0.0	0.0	0.0	0.0	555.0	-0.98	0.003	
10.0	0.0	0.0	0.0	0.0	549.0	-0.989	-0.044	
11.0	0.0	0.0	0.0	0.0	544.0	-1.002	-0.135	
12.0	0.0	0.0	0.0	0.0	540.0	-1.012	-0.094	
13.0	0.0	0.0	0.0	0.0	536.0	-1.025	-0.079	
14.0	0.0	0.0	0.0	0.0	533.0	-1.034	-0.044	
15.0	0.0	0.0	0.0	0.0	531.0	-1.044	-0.029	
0.0	0.0	0.0	0.0	0.0	530.0	-1.051	-0.088	
1.0	0.0	0.0	0.0	0.0	529.0	-1.06	-0.044	
2.0	0.0	0.0	0.0	0.0	529.0	-1.073	0.021	
3.0	0.0	0.0	0.0	0.0	529.0	-1.086	-0.155	
4.0	0.0	0.0	0.0	0.0	528.0	-1.099	-0.07	
5.0	0.0	0.0	0.0	0.0	526.0	-1.112	-0.026	
6.0	0.0	0.0	0.0	0.0	525.0	-1.128	-0.029	
7.0	0.0	0.0	0.0	0.0	524.0	-1.134	0.05	
8.0	0.0	0.0	0.0	0.0	523.0	-1.141	0.009	
9.0	0.0	0.0	0.0	0.0	521.0	-1.147	-0.012	
10.0	0.0	0.0	0.0	0.0	519.0	-1.15	-0.021	
11.0	0.0	0.0	0.0	0.0	516.0	-1.154	0.023	
12.0	0.0	0.0	0.0	0.0	512.0	-1.157	0.012	
13.0	0.0	0.0	0.0	0.0	509.0	-1.154	-0.035	
14.0	0.0	0.0	0.0	0.0	505.0	-1.157	0.053	
15.0	0.0	0.0	0.0	0.0	501.0	-1.157	0.012	
0.0	0.0	0.0	0.0	0.0	498.0	-1.157	0.062	
1.0	0.0	0.0	0.0	0.0	496.0	-1.15	0.006	
2.0	0.0	0.0	0.0	0.0	493.0	-1.141	-0.006	
3.0	0.0	0.0	0.0	0.0	490.0	-1.134	0.029	
4.0	0.0	0.0	0.0	0.0	488.0	-1.125	0.006	
5.0	0.0	0.0	0.0	0.0	486.0	-1.118	-0.018	
6.0	0.0	0.0	0.0	0.0	484.0	-1.109	0.0	
7.0	0.0	0.0	0.0	0.0	483.0	-1.099	0.018	
8.0	0.0	0.0	0.0	0.0	482.0	-1.086	0.015	
9.0	0.0	0.0	0.0	0.0	480.0	-1.083	0.003	
10.0	0.0	0.0	0.0	0.0	478.0	-1.073	-0.009	
11.0	0.0	0.0	0.0	0.0	478.0	-1.067	0.003	
12.0	0.0	0.0	0.0	0.0	480.0	-1.06	0.0	
13.0	0.0	0.0	0.0	0.0	480.0	-1.054	-0.047	
14.0	0.0	0.0	0.0	0.0	479.0	-1.054	-0.023	
15.0	0.0	0.0	0.0	0.0	479.0	-1.044	-0.009	
0.0	0.0	0.0	0.0	0.0	476.0	-1.038	0.003	
1.0	0.0	0.0	0.0	0.0	474.0	-1.034	0.021	
2.0	0.0	0.0	0.0	0.0	472.0	-1.028	0.0	
3.0	0.0	0.0	0.0	0.0	471.0	-1.025	0.056	
4.0	0.0	0.0	0.0	0.0	471.0	-1.018	0.0	
5.0	0.0	0.0	0.0	0.0	470.0	-1.018	0.032	
6.0	0.0	0.0	0.0	0.0	469.0	-1.018	-0.097	
7.0	0.0	0.0	0.0	0.0	470.0	-1.018	-0.173	
8.0	0.0	0.0	0.0	0.0	469.0	-1.022	-0.12	
9.0	0.0	0.0	0.0	0.0	467.0	-1.028	-0.138	
10.0	0.0	0.0	0.0	0.0	465.0	-1.034	-0.097	
11.0	0.0	0.0	0.0	0.0	464.0	-1.044	-0.103	
12.0	0.0	0.0	0.0	0.0	463.0	-1.057	-0.079	
13.0	0.0	0.0	0.0	0.0	463.0	-1.07	-0.117	
14.0	0.0	0.0	0.0	0.0	461.0	-1.089	-0.085	
15.0	0.0	0.0	0.0	0.0	461.0	-1.105	0.22	
0.0	0.0	0.0	0.0	0.0	461.0	-1.125	0.639	
1.0	0.0	0.0	0.0	0.0	460.0	-1.141	0.574	
2.0	0.0	0.0	0.0	0.0	460.0	-1.157	0.129	
3.0	0.0	0.0	0.0	0.0	460.0	-1.176	-0.144	
4.0	0.0	0.0	0.0	0.0	459.0	-1.196	-0.161	
5.0	0.0	0.0	0.0	0.0	459.0	-1.212	-0.123	
6.0	0.0	0.0	0.0	0.0	459.0	-1.228	-0.202	
7.0	0.0	0.0	0.0	0.0	460.0	-1.241	-0.129	
8.0	0.0	0.0	0.0	0.0	458.0	-1.25	-0.126	
9.0	0.0	0.0	0.0	0.0	458.0	-1.263	-0.129	
10.0	0.0	0.0	0.0	0.0	457.0	-1.273	-0.053	
11.0	0.0	0.0	0.0	0.0	456.0	-1.283	-0.082	
12.0	0.0	0.0	0.0	0.0	456.0	-1.292	-0.103	
13.0	0.0	0.0	0.0	0.0	457.0	-1.308	-0.059	
14.0	0.0	0.0	0.0	0.0	458.0	-1.321	-0.038	
15.0	0.0	0.0	0.0	0.0	459.0	-1.331	-0.003	
0.0	0.0	0.0	0.0	0.0	458.0	-1.344	-0.012	
1.0	0.0	0.0	0.0	0.0	457.0	-1.357	-0.012	
2.0	0.0	0.0	0.0	0.0	455.0	-1.366	0.059	
3.0	0.0	0.0	0.0	0.0	454.0	-1.383	0.009	
4.0	0.0	0.0	0.0	0.0	454.0	-1.399	-0.015	
5.0	0.0	0.0	0.0	0.0	453.0	-1.415	0.059	
6.0	0.0	0.0	0.0	0.0	452.0	-1.428	0.059	
7.0	0.0	0.0	0.0	0.0	451.0	-1.444	0.108	
8.0	0.0	0.0	0.0	0.0	449.0	-1.453	0.067	
9.0	0.0	0.0	0.0	0.0	448.0	-1.47	0.103	
10.0	0.0	0.0	0.0	0.0	448.0	-1.482	0.07	
11.0	0.0	0.0	0.0	0.0	449.0	-1.495	0.067	
12.0	0.0	0.0	0.0	0.0	450.0	-1.502	0.094	
13.0	0.0	0.0	0.0	0.0	451.0	-1.515	0.126	
14.0	0.0	0.0	0.0	0.0	456.0	-1.521	0.135	
15.0	0.0	0.0	0.0	0.0	464.0	-1.528	0.111	
0.0	0.0	0.0	0.0	0.0	473.0	-1.537	0.152	
1.0	0.0	0.0	0.0	0.0	481.0	-1.547	0.138	
2.0	0.0	0.0	0.0	0.0	491.0	-1.55	0.085	
3.0	0.0	0.0	0.0	0.0	503.0	-1.56	-0.07	
4.0	0.0	0.0	0.0	0.0	514.0	-1.563	-0.088	
5.0	0.0	0.0	0.0	0.0	524.0	-1.569	-0.132	
6.0	0.0	0.0	0.0	0.0	533.0	-1.576	-0.135	
7.0	0.0	0.0	0.0	0.0	543.0	-1.579	-0.138	
8.0	0.0	0.0	0.0	0.0	552.0	-1.579	-0.079	
9.0	0.0	0.0	0.0	0.0	558.0	-1.579	-0.105	
10.0	0.0	0.0	0.0	0.0	564.0	-1.579	-0.146	
11.0	0.0	0.0	0.0	0.0	567.0	-1.582	-0.073	
12.0	0.0	0.0	0.0	0.0	568.0	-1.586	-0.032	
13.0	0.0	0.0	0.0	0.0	570.0	-1.582	-0.056	
14.0	0.0	0.0	0.0	0.0	570.0	-1.576	0.018	
15.0	0.0	0.0	0.0	0.0	572.0	-1.576	0.003	
0.0	0.0	0.0	0.0	0.0	572.0	-1.573	0.044	
1.0	0.0	0.0	0.0	0.0	574.0	-1.573	-0.018	
2.0	0.0	0.0	0.0	0.0	575.0	-1.569	0.018	
3.0	0.0	0.0	0.0	0.0	576.0	-1.569	0.07	
4.0	0.0	0.0	0.0	0.0	579.0	-1.569	0.053	
5.0	0.0	0.0	0.0	0.0	583.0	-1.56	0.12	
6.0	0.0	0.0	0.0	0.0	583.0	-1.553	0.05	
7.0	0.0	0.0	0.0	0.0	583.0	-1.55	0.029	
8.0	0.0	0.0	0.0	0.0	582.0	-1.537	0.067	
9.0	0.0	0.0	0.0	0.0	580.0	-1.534	0.123	
10.0	0.0	0.0	0.0	0.0	577.0	-1.528	0.035	
11.0	0.0	0.0	0.0	0.0	575.0	-1.528	0.097	
12.0	0.0	0.0	0.0	0.0	570.0	-1.518	0.079	
13.0	0.0	0.0	0.0	0.0	565.0	-1.511	0.094	
14.0	0.0	0.0	0.0	0.0	559.0	-1.511	0.105	
15.0	0.0	0.0	0.0	0.0	554.0	-1.515	0.044	
0.0	0.0	0.0	0.0	0.0	549.0	-1.511	0.032	
1.0	0.0	0.0	0.0	0.0	545.0	-1.511	0.064	
2.0	0.0	0.0	0.0	0.0	543.0	-1.502	0.021	
3.0	0.0	0.0	0.0	0.0	540.0	-1.502	0.006	
4.0	0.0	0.0	0.0	0.0	536.0	-1.502	0.056	
5.0	0.0	0.0	0.0	0.0	531.0	-1.499	-0.012	
6.0	0.0	0.0	0.0	0.0	529.0	-1.499	0.018	
7.0	0.0	0.0	0.0	0.0	527.0	-1.495	0.015	
8.0	0.0	0.0	0.0	0.0	525.0	-1.486	0.006	
9.0	0.0	0.0	0.0	0.0	523.0	-1.479	-0.026	
10.0	0.0	0.0	0.0	0.0	521.0	-1.473	-0.023	
11.0	0.0	0.0	0.0	0.0	522.0	-1.473	0.032	
12.0	0.0	0.0	0.0	0.0	521.0	-1.463	0.0	
13.0	0.0	0.0	0.0	0.0	519.0	-1.45	-0.003	
14.0	0.0	0.0	0.0	0.0	517.0	-1.447	0.015	
15.0	0.0	0.0	0.0	0.0	515.0	-1.434	0.018	
0.0	0.0	0.0	0.0	0.0	512.0	-1.424	0.009	
1.0	0.0	0.0	0.0	0.0	507.0	-1.418	0.035	
2.0	0.0	0.0	0.0	0.0	504.0	-1.402	-0.029	
3.0	0.0	0.0	0.0	0.0	502.0	-1.392	0.006	
4.0	0.0	0.0	0.0	0.0	499.0	-1.383	-0.012	
5.0	0.0	0.0	0.0	0.0	499.0	-1.363	0.044	
6.0	0.0	0.0	0.0	0.0	498.0	-1.354	0.038	
7.0	0.0	0.0	0.0	0.0	497.0	-1.344	0.015	
8.0	0.0	0.0	0.0	0.0	496.0	-1.328	-0.021	
9.0	0.0	0.0	0.0	0.0	494.0	-1.312	0.044	
10.0	0.0	0.0	0.0	0.0	494.0	-1.302	0.044	
11.0	0.0	0.0	0.0	0.0	492.0	-1.286	0.07	
12.0	0.0	0.0	0.0	0.0	492.0	-1.279	-0.018	
13.0	0.0	0.0	0.0	0.0	492.0	-1.267	0.018	
14.0	0.0	0.0	0.0	0.0	493.0	-1.257	0.041	
15.0	0.0	0.0	0.0	0.0	494.0	-1.25	0.041	
0.0	0.0	0.0	0.0	0.0	493.0	-1.237	0.044	
1.0	0.0	0.0	0.0	0.0	493.0	-1.228	0.067	
2.0	0.0	0.0	0.0	0.0	494.0	-1.218	0.07	
3.0	0.0	0.0	0.0	0.0	491.0	-1.205	0.05	
4.0	0.0	0.0	0.0	0.0	489.0	-1.199	0.082	
5.0	0.0	0.0	0.0	0.0	487.0	-1.186	0.146	
6.0	0.0	0.0	0.0	0.0	485.0	-1.176	0.091	
7.0	0.0	0.0	0.0	0.0	482.0	-1.16	0.176	
8.0	0.0	0.0	0.0	0.0	481.0	-1.15	0.211	
9.0	0.0	0.0	0.0	0.0	480.0	-1.138	0.129	
10.0	0.0	0.0	0.0	0.0	477.0	-1.128	0.056	
11.0	0.0	0.0	0.0	0.0	474.0	-1.125	0.041	
12.0	0.0	0.0	0.0	0.0	474.0	-1.112	0.009	
13.0	0.0	0.0	0.0	0.0	473.0	-1.099	-0.023	
14.0	0.0	0.0	0.0	0.0	472.0	-1.086	-0.021	
15.0	0.0	0.0	0.0	0.0	469.0	-1.07	-0.009	
0.0	0.0	0.0	0.0	0.0	467.0	-1.057	0.012	
1.0	0.0	0.0	0.0	0.0	465.0	-1.034	-0.015	
2.0	0.0	0.0	0.0	0.0	464.0	-1.018	-0.006	
3.0	0.0	0.0	0.0	0.0	463.0	-1.002	-0.047	
4.0	0.0	0.0	0.0	0.0	462.0	-0.989	0.369	
5.0	0.0	0.0	0.0	0.0	460.0	-0.973	0.697	
6.0	0.0	0.0	0.0	0.0	459.0	-0.96	0.577	
7.0	0.0	0.0	0.0	0.0	460.0	-0.947	0.091	
8.0	0.0	0.0	0.0	0.0	460.0	-0.938	-0.111	
9.0	0.0	0.0	0.0	0.0	461.0	-0.928	-0.167	
10.0	0.0	0.0	0.0	0.0	463.0	-0.922	-0.126	
11.0	0.0	0.0	0.0	0.0	464.0	-0.912	-0.103	
12.0	0.0	0.0	0.0	0.0	466.0	-0.906	-0.082	
13.0	0.0	0.0	0.0	0.0	465.0	-0.902	-0.076	
14.0	0.0	0.0	0.0	0.0	466.0	-0.896	-0.047	
15.0	0.0	0.0	0.0	0.0	467.0	-0.889	-0.026	
0.0	0.0	0.0	0.0	0.0	469.0	-0.886	-0.029	
1.0	0.0	0.0	0.0	0.0	472.0	-0.883	-0.015	
2.0	0.0	0.0	0.0	0.0	473.0	-0.88	-0.015	
3.0	0.0	0.0	0.0	0.0	475.0	-0.877	0.015	
4.0	0.0	0.0	0.0	0.0	475.0	-0.873	-0.006	
5.0	0.0	0.0	0.0	0.0	483.0	-0.867	-0.012	
6.0	0.0	0.0	0.0	0.0	529.0	-0.864	0.035	
7.0	0.0	0.0	0.0	0.0	681.0	-0.86	0.047	
8.0	0.0	0.0	0.0	0.0	974.0	-0.857	0.012	
9.0	0.0	0.0	0.0	0.0	974.0	-0.86	-0.041	
10.0	0.0	0.0	0.0	0.0	974.0	-0.851	0.018	
11.0	0.0	0.0	0.0	0.0	974.0	-0.851	0.097	
12.0	0.0	0.0	0.0	0.0	974.0	-0.841	0.041	
13.0	0.0	0.0	0.0	0.0	975.0	-0.835	-0.006	
14.0	0.0	0.0	0.0	0.0	975.0	-0.822	0.044	
15.0	0.0	0.0	0.0	0.0	975.0	-0.809	0.053	
0.0	0.0	0.0	0.0	0.0	975.0	-0.802	0.123	
1.0	0.0	0.0	0.0	0.0	975.0	-0.79	0.038	
2.0	0.0	0.0	0.0	0.0	974.0	-0.78	0.091	
3.0	0.0	0.0	0.0	0.0	975.0	-0.777	0.082	
4.0	0.0	0.0	0.0	0.0	974.0	-0.767	0.146	
5.0	0.0	0.0	0.0	0.0	974.0	-0.754	0.152	
6.0	0.0	0.0	0.0	0.0	974.0	-0.748	0.064	
7.0	0.0	0.0	0.0	0.0	974.0	-0.732	-0.073	
8.0	0.0	0.0	0.0	0.0	974.0	-0.719	-0.135	
9.0	0.0	0.0	0.0	0.0	974.0	-0.696	-0.155	
10.0	0.0	0.0	0.0	0.0	974.0	-0.68	-0.182	
11.0	0.0	0.0	0.0	0.0	974.0	-0.661	-0.188	
12.0	0.0	0.0	0.0	0.0	974.0	-0.648	-0.179	
13.0	0.0	0.0	0.0	0.0	974.0	-0.632	-0.129	
14.0	0.0	0.0	0.0	0.0	974.0	-0.616	-0.185	
15.0	0.0	0.0	0.0	0.0	974.0	-0.599	-0.152	
0.0	0.0	0.0	0.0	0.0	974.0	-0.58	-0.094	
1.0	0.0	0.0	0.0	0.0	974.0	-0.57	-0.108	
2.0	0.0	0.0	0.0	0.0	974.0	-0.554	-0.094	
3.0	0.0	0.0	0.0	0.0	974.0	-0.541	-0.103	
4.0	0.0	0.0	0.0	0.0	974.0	-0.525	-0.1	
5.0	0.0	0.0	0.0	0.0	974.0	-0.512	-0.088	
6.0	0.0	0.0	0.0	0.0	974.0	-0.493	-0.041	
7.0	0.0	0.0	0.0	0.0	974.0	-0.474	-0.073	
8.0	0.0	0.0	0.0	0.0	974.0	-0.454	-0.021	
9.0	0.0	0.0	0.0	0.0	974.0	-0.435	0.003	
10.0	0.0	0.0	0.0	0.0	974.0	-0.413	0.079	
11.0	0.0	0.0	0.0	0.0	974.0	-0.396	-0.009	
12.0	0.0	0.0	0.0	0.0	974.0	-0.377	0.021	
13.0	0.0	0.0	0.0	0.0	974.0	-0.364	-0.021	
14.0	0.0	0.0	0.0	0.0	974.0	-0.351	0.023	
15.0	0.0	0.0	0.0	0.0	974.0	-0.338	0.044	
0.0	0.0	0.0	0.0	0.0	974.0	-0.325	0.003	
1.0	0.0	0.0	0.0	0.0	974.0	-0.313	0.029	
2.0	0.0	0.0	0.0	0.0	974.0	-0.303	0.023	
3.0	0.0	0.0	0.0	0.0	974.0	-0.287	0.026	
4.0	0.0	0.0	0.0	0.0	974.0	-0.28	-0.047	
5.0	0.0	0.0	0.0	0.0	974.0	-0.267	0.009	
6.0	0.0	0.0	0.0	0.0	974.0	-0.258	0.021	
7.0	0.0	0.0	0.0	0.0	974.0	-0.245	-0.076	
8.0	0.0	0.0	0.0	0.0	974.0	-0.229	-0.015	
9.0	0.0	0.0	0.0	0.0	974.0	-0.213	0.103	
10.0	0.0	0.0	0.0	0.0	974.0	-0.2	-0.185	
11.0	0.0	0.0	0.0	0.0	974.0	-0.184	-0.105	
12.0	0.0	0.0	0.0	0.0	974.0	-0.164	-0.064	
13.0	0.0	0.0	0.0	0.0	974.0	-0.151	0.226	
14.0	0.0	0.0	0.0	0.0	974.0	-0.139	-0.047	
15.0	0.0	0.0	0.0	0.0	974.0	-0.122	-0.047	
0.0	0.0	0.0	0.0	0.0	974.0	-0.11	-0.021	
1.0	0.0	0.0	0.0	0.0	974.0	-0.093	0.261	
2.0	0.0	0.0	0.0	0.0	974.0	-0.081	-0.284	
3.0	0.0	0.0	0.0	0.0	974.0	-0.068	-0.141	
4.0	0.0	0.0	0.0	0.0	974.0	-0.052	-0.1	
5.0	0.0	0.0	0.0	0.0	974.0	-0.039	0.073	
6.0	0.0	0.0	0.0	0.0	974.0	-0.023	0.038	
7.0	0.0	0.0	0.0	0.0	974.0	-0.003	-0.064	
8.0	0.0	0.0	0.0	0.0	974.0	0.013	0.018	
9.0	0.0	0.0	0.0	0.0	974.0	0.026	0.062	
10.0	0.0	0.0	0.0	0.0	974.0	0.042	0.082	
11.0	0.0	0.0	0.0	0.0	974.0	0.061	0.044	
12.0	0.0	0.0	0.0	0.0	974.0	0.074	0.07	
13.0	0.0	0.0	0.0	0.0	973.0	0.09	-0.076	
14.0	0.0	0.0	0.0	0.0	896.0	0.11	0.05	
15.0	0.0	0.0	0.0	0.0	827.0	0.126	0.021	
0.0	0.0	0.0	0.0	0.0	765.0	0.135	0.064	
1.0	0.0	0.0	0.0	0.0	713.0	0.151	0.032	
2.0	0.0	0.0	0.0	0.0	670.0	0.161	0.167	
3.0	0.0	0.0	0.0	0.0	635.0	0.174	0.091	
4.0	0.0	0.0	0.0	0.0	610.0	0.184	0.138	
5.0	0.0	0.0	0.0	0.0	591.0	0.193	0.026	
6.0	0.0	0.0	0.0	0.0	577.0	0.197	0.079	
7.0	0.0	0.0	0.0	0.0	567.0	0.2	0.1	
8.0	0.0	0.0	0.0	0.0	560.0	0.203	0.158	
9.0	0.0	0.0	0.0	0.0	553.0	0.2	0.064	
10.0	0.0	0.0	0.0	0.0	549.0	0.197	0.023	
11.0	0.0	0.0	0.0	0.0	544.0	0.19	0.123	
12.0	0.0	0.0	0.0	0.0	537.0	0.18	0.155	
13.0	0.0	0.0	0.0	0.0	528.0	0.171	0.126	
14.0	0.0	0.0	0.0	0.0	520.0	0.161	0.091	
15.0	0.0	0.0	0.0	0.0	510.0	0.151	0.006	
0.0	0.0	0.0	0.0	0.0	499.0	0.139	0.094	
1.0	0.0	0.0	0.0	0.0	486.0	0.126	0.073	
2.0	0.0	0.0	0.0	0.0	473.0	0.113	0.023	
3.0	0.0	0.0	0.0	0.0	458.0	0.1	0.056	
4.0	0.0	0.0	0.0	0.0	442.0	0.09	0.085	
5.0	0.0	0.0	0.0	0.0	425.0	0.074	0.144	
6.0	0.0	0.0	0.0	0.0	408.0	0.061	0.023	
7.0	0.0	0.0	0.0	0.0	392.0	0.048	-0.067	
8.0	0.0	0.0	0.0	0.0	377.0	0.035	0.021	
9.0	0.0	0.0	0.0	0.0	364.0	0.023	0.073	
10.0	0.0	0.0	0.0	0.0	353.0	0.01	0.091	
11.0	0.0	0.0	0.0	0.0	341.0	-0.003	0.023	
12.0	0.0	0.0	0.0	0.0	333.0	-0.016	0.073	
13.0	0.0	0.0	0.0	0.0	327.0	-0.029	0.062	
14.0	0.0	0.0	0.0	0.0	322.0	-0.042	0.082	
15.0	0.0	0.0	0.0	0.0	320.0	-0.052	-0.026	
0.0	0.0	0.0	0.0	0.0	321.0	-0.058	-0.076	
1.0	0.0	0.0	0.0	0.0	324.0	-0.064	-0.188	
2.0	0.0	0.0	0.0	0.0	329.0	-0.071	-0.141	
3.0	0.0	0.0	0.0	0.0	333.0	-0.077	-0.1	
4.0	0.0	0.0	0.0	0.0	339.0	-0.081	-0.003	
5.0	0.0	0.0	0.0	0.0	344.0	-0.084	-0.082	
6.0	0.0	0.0	0.0	0.0	348.0	-0.087	-0.114	
7.0	0.0	0.0	0.0	0.0	350.0	-0.09	-0.082	
8.0	0.0	0.0	0.0	0.0	348.0	-0.093	0.082	
9.0	0.0	0.0	0.0	0.0	342.0	-0.093	0.568	
10.0	0.0	0.0	0.0	0.0	334.0	-0.093	0.618	
11.0	0.0	0.0	0.0	0.0	329.0	-0.093	0.044	
12.0	0.0	0.0	0.0	0.0	327.0	-0.097	-0.161	
13.0	0.0	0.0	0.0	0.0	328.0	-0.097	-0.185	
14.0	0.0	0.0	0.0	0.0	333.0	-0.103	-0.17	
15.0	0.0	0.0	0.0	0.0	344.0	-0.106	-0.211	
0.0	0.0	0.0	0.0	0.0	361.0	-0.11	-0.135	
1.0	0.0	0.0	0.0	0.0	385.0	-0.113	-0.015	
2.0	0.0	0.0	0.0	0.0	411.0	-0.116	-0.114	
3.0	0.0	0.0	0.0	0.0	441.0	-0.119	-0.144	
4.0	0.0	0.0	0.0	0.0	469.0	-0.122	-0.082	
5.0	0.0	0.0	0.0	0.0	495.0	-0.126	-0.088	
6.0	0.0	0.0	0.0	0.0	519.0	-0.129	0.097	
7.0	0.0	0.0	0.0	0.0	540.0	-0.132	-0.094	
8.0	0.0	0.0	0.0	0.0	556.0	-0.135	-0.015	
9.0	0.0	0.0	0.0	0.0	567.0	-0.139	-0.003	
10.0	0.0	0.0	0.0	0.0	576.0	-0.145	-0.117	
11.0	0.0	0.0	0.0	0.0	580.0	-0.151	-0.041	
12.0	0.0	0.0	0.0	0.0	579.0	-0.155	0.056	
13.0	0.0	0.0	0.0	0.0	577.0	-0.161	0.059	
14.0	0.0	0.0	0.0	0.0	574.0	-0.168	0.038	
15.0	0.0	0.0	0.0	0.0	568.0	-0.171	-0.038	
0.0	0.0	0.0	0.0	0.0	560.0	-0.174	-0.088	
1.0	0.0	0.0	0.0	0.0	550.0	-0.177	-0.047	
2.0	0.0	0.0	0.0	0.0	540.0	-0.18	0.044	
3.0	0.0	0.0	0.0	0.0	532.0	-0.18	0.059	
4.0	0.0	0.0	0.0	0.0	524.0	-0.184	0.103	
5.0	0.0	0.0	0.0	0.0	519.0	-0.187	0.07	
6.0	0.0	0.0	0.0	0.0	517.0	-0.193	0.076	
7.0	0.0	0.0	0.0	0.0	518.0	-0.2	0.012	
8.0	0.0	0.0	0.0	0.0	523.0	-0.206	0.047	
9.0	0.0	0.0	0.0	0.0	529.0	-0.216	0.082	
10.0	0.0	0.0	0.0	0.0	538.0	-0.222	0.041	
11.0	0.0	0.0	0.0	0.0	547.0	-0.232	-0.085	
12.0	0.0	0.0	0.0	0.0	557.0	-0.242	-0.091	
13.0	0.0	0.0	0.0	0.0	566.0	-0.248	-0.05	
14.0	0.0	0.0	0.0	0.0	575.0	-0.258	-0.167	
15.0	0.0	0.0	0.0	0.0	581.0	-0.261	-0.226	
0.0	0.0	0.0	0.0	0.0	587.0	-0.264	-0.229	
1.0	0.0	0.0	0.0	0.0	591.0	-0.267	-0.164	
2.0	0.0	0.0	0.0	0.0	593.0	-0.267	-0.258	
3.0	0.0	0.0	0.0	0.0	594.0	-0.264	-0.214	
4.0	0.0	0.0	0.0	0.0	594.0	-0.264	-0.179	
5.0	0.0	0.0	0.0	0.0	594.0	-0.261	-0.149	
6.0	0.0	0.0	0.0	0.0	595.0	-0.258	-0.073	
7.0	0.0	0.0	0.0	0.0	594.0	-0.255	-0.073	
8.0	0.0	0.0	0.0	0.0	594.0	-0.251	-0.091	
9.0	0.0	0.0	0.0	0.0	596.0	-0.242	-0.032	
10.0	0.0	0.0	0.0	0.0	596.0	-0.235	-0.012	
11.0	0.0	0.0	0.0	0.0	595.0	-0.229	-0.006	
12.0	0.0	0.0	0.0	0.0	597.0	-0.222	0.064	
13.0	0.0	0.0	0.0	0.0	598.0	-0.219	-0.076	
14.0	0.0	0.0	0.0	0.0	598.0	-0.216	-0.064	
15.0	0.0	0.0	0.0	0.0	594.0	-0.213	-0.088	
0.0	0.0	0.0	0.0	0.0	585.0	-0.213	0.006	
1.0	0.0	0.0	0.0	0.0	574.0	-0.216	0.056	
2.0	0.0	0.0	0.0	0.0	560.0	-0.219	0.003	
3.0	0.0	0.0	0.0	0.0	544.0	-0.226	-0.067	
4.0	0.0	0.0	0.0	0.0	528.0	-0.235	-0.047	
5.0	0.0	0.0	0.0	0.0	512.0	-0.248	-0.021	
6.0	0.0	0.0	0.0	0.0	497.0	-0.261	-0.015	
7.0	0.0	0.0	0.0	0.0	484.0	-0.271	-0.079	
8.0	0.0	0.0	0.0	0.0	472.0	-0.287	-0.035	
9.0	0.0	0.0	0.0	0.0	465.0	-0.296	-0.018	
10.0	0.0	0.0	0.0	0.0	460.0	-0.309	-0.032	
11.0	0.0	0.0	0.0	0.0	457.0	-0.322	-0.047	
12.0	0.0	0.0	0.0	0.0	456.0	-0.332	-0.029	
13.0	0.0	0.0	0.0	0.0	457.0	-0.342	-0.053	
14.0	0.0	0.0	0.0	0.0	458.0	-0.348	-0.073	
15.0	0.0	0.0	0.0	0.0	462.0	-0.354	-0.053	
0.0	0.0	0.0	0.0	0.0	467.0	-0.361	-0.015	
1.0	0.0	0.0	0.0	0.0	474.0	-0.367	-0.023	
2.0	0.0	0.0	0.0	0.0	482.0	-0.371	-0.029	
3.0	0.0	0.0	0.0	0.0	489.0	-0.377	-0.05	
4.0	0.0	0.0	0.0	0.0	495.0	-0.38	-0.111	
5.0	0.0	0.0	0.0	0.0	499.0	-0.383	-0.021	
6.0	0.0	0.0	0.0	0.0	502.0	-0.387	-0.056	
7.0	0.0	0.0	0.0	0.0	501.0	-0.39	-0.076	
8.0	0.0	0.0	0.0	0.0	500.0	-0.393	0.026	
9.0	0.0	0.0	0.0	0.0	501.0	-0.393	-0.05	
10.0	0.0	0.0	0.0	0.0	502.0	-0.393	0.009	
11.0	0.0	0.0	0.0	0.0	502.0	-0.393	-0.053	
12.0	0.0	0.0	0.0	0.0	500.0	-0.39	-0.038	
13.0	0.0	0.0	0.0	0.0	497.0	-0.39	-0.082	
14.0	0.0	0.0	0.0	0.0	494.0	-0.387	-0.021	
15.0	0.0	0.0	0.0	0.0	489.0	-0.383	-0.05	
0.0	0.0	0.0	0.0	0.0	484.0	-0.377	-0.012	
1.0	0.0	0.0	0.0	0.0	480.0	-0.371	0.0	
2.0	0.0	0.0	0.0	0.0	475.0	-0.367	-0.038	
3.0	0.0	0.0	0.0	0.0	472.0	-0.361	-0.059	
4.0	0.0	0.0	0.0	0.0	468.0	-0.354	-0.006	
5.0	0.0	0.0	0.0	0.0	464.0	-0.351	-0.073	
6.0	0.0	0.0	0.0	0.0	462.0	-0.345	-0.047	
7.0	0.0	0.0	0.0	0.0	458.0	-0.342	0.05	
8.0	0.0	0.0	0.0	0.0	455.0	-0.342	0.047	
9.0	0.0	0.0	0.0	0.0	453.0	-0.338	-0.12	
10.0	0.0	0.0	0.0	0.0	449.0	-0.335	-0.044	
11.0	0.0	0.0	0.0	0.0	442.0	-0.335	-0.047	
12.0	0.0	0.0	0.0	0.0	433.0	-0.332	-0.047	
13.0	0.0	0.0	0.0	0.0	426.0	-0.332	-0.05	
14.0	0.0	0.0	0.0	0.0	417.0	-0.329	0.035	
15.0	0.0	0.0	0.0	0.0	410.0	-0.329	0.035	
0.0	0.0	0.0	0.0	0.0	401.0	-0.329	-0.006	
1.0	0.0	0.0	0.0	0.0	392.0	-0.329	0.07	
2.0	0.0	0.0	0.0	0.0	383.0	-0.329	0.003	
3.0	0.0	0.0	0.0	0.0	375.0	-0.332	-0.126	
4.0	0.0	0.0	0.0	0.0	371.0	-0.335	-0.038	
5.0	0.0	0.0	0.0	0.0	372.0	-0.338	0.012	
6.0	0.0	0.0	0.0	0.0	377.0	-0.345	0.009	
7.0	0.0	0.0	0.0	0.0	382.0	-0.351	0.0	
8.0	0.0	0.0	0.0	0.0	389.0	-0.358	0.091	
9.0	0.0	0.0	0.0	0.0	396.0	-0.364	-0.067	
10.0	0.0	0.0	0.0	0.0	403.0	-0.371	-0.047	
11.0	0.0	0.0	0.0	0.0	404.0	-0.374	0.038	
12.0	0.0	0.0	0.0	0.0	407.0	-0.38	0.062	
13.0	0.0	0.0	0.0	0.0	408.0	-0.387	0.079	
14.0	0.0	0.0	0.0	0.0	405.0	-0.39	0.085	
15.0	0.0	0.0	0.0	0.0	399.0	-0.393	0.126	
0.0	0.0	0.0	0.0	0.0	389.0	-0.4	0.059	
1.0	0.0	0.0	0.0	0.0	378.0	-0.403	0.056	
2.0	0.0	0.0	0.0	0.0	365.0	-0.403	-0.073	
3.0	0.0	0.0	0.0	0.0	350.0	-0.406	-0.105	
4.0	0.0	0.0	0.0	0.0	331.0	-0.409	-0.009	
5.0	0.0	0.0	0.0	0.0	307.0	-0.409	-0.064	
6.0	0.0	0.0	0.0	0.0	280.0	-0.409	-0.144	
7.0	0.0	0.0	0.0	0.0	249.0	-0.409	-0.103	
8.0	0.0	0.0	0.0	0.0	212.0	-0.409	0.044	
9.0	0.0	0.0	0.0	0.0	173.0	-0.409	0.021	
10.0	0.0	0.0	0.0	0.0	130.0	-0.406	-0.105	
11.0	0.0	0.0	0.0	0.0	83.0	-0.403	0.375	
12.0	0.0	0.0	0.0	0.0	34.0	-0.403	0.709	
13.0	0.0	0.0	0.0	0.0	0.0	-0.396	0.472	
14.0	0.0	0.0	0.0	0.0	0.0	-0.39	-0.047	
15.0	0.0	0.0	0.0	0.0	0.0	-0.39	-0.144	
0.0	0.0	0.0	0.0	0.0	0.0	-0.387	-0.146	
1.0	0.0	0.0	0.0	0.0	0.0	-0.383	-0.108	
2.0	0.0	0.0	0.0	0.0	0.0	-0.383	-0.062	
3.0	0.0	0.0	0.0	0.0	0.0	-0.38	-0.079	
4.0	0.0	0.0	0.0	0.0	0.0	-0.38	-0.199	
5.0	0.0	0.0	0.0	0.0	0.0	-0.377	-0.094	
6.0	0.0	0.0	0.0	0.0	0.0	-0.374	-0.138	
7.0	0.0	0.0	0.0	0.0	0.0	-0.377	-0.088	
8.0	0.0	0.0	0.0	0.0	0.0	-0.374	-0.047	
9.0	0.0	0.0	0.0	0.0	0.0	-0.374	0.012	
10.0	0.0	0.0	0.0	0.0	0.0	-0.374	0.196	
11.0	0.0	0.0	0.0	0.0	0.0	-0.377	-0.117	
12.0	0.0	0.0	0.0	0.0	0.0	-0.377	-0.085	
13.0	0.0	0.0	0.0	0.0	0.0	-0.387	0.0	
14.0	0.0	0.0	0.0	0.0	0.0	-0.39	0.021	
15.0	0.0	0.0	0.0	0.0	0.0	-0.396	0.021	
0.0	0.0	0.0	0.0	0.0	0.0	-0.403	0.053	
1.0	0.0	0.0	0.0	0.0	0.0	-0.409	0.044	
2.0	0.0	0.0	0.0	0.0	0.0	-0.419	0.111	
3.0	0.0	0.0	0.0	0.0	0.0	-0.429	0.044	
4.0	0.0	0.0	0.0	0.0	0.0	-0.435	0.082	
5.0	0.0	0.0	0.0	0.0	0.0	-0.445	0.111	
6.0	0.0	0.0	0.0	0.0	0.0	-0.451	0.135	
7.0	0.0	0.0	0.0	0.0	0.0	-0.461	0.1	
8.0	0.0	0.0	0.0	0.0	0.0	-0.471	0.152	
9.0	0.0	0.0	0.0	0.0	0.0	-0.477	0.123	
10.0	0.0	0.0	0.0	0.0	0.0	-0.487	0.132	
11.0	0.0	0.0	0.0	0.0	0.0	-0.493	0.085	
12.0	0.0	0.0	0.0	0.0	0.0	-0.496	0.12	
13.0	0.0	0.0	0.0	0.0	0.0	-0.503	0.091	
14.0	0.0	0.0	0.0	0.0	0.0	-0.506	0.067	
15.0	0.0	0.0	0.0	0.0	0.0	-0.509	-0.015	
0.0	0.0	0.0	0.0	0.0	0.0	-0.512	-0.079	
1.0	0.0	0.0	0.0	0.0	0.0	-0.512	-0.064	
2.0	0.0	0.0	0.0	0.0	0.0	-0.509	-0.126	
3.0	0.0	0.0	0.0	0.0	0.0	-0.512	-0.179	
4.0	0.0	0.0	0.0	0.0	0.0	-0.509	-0.22	
5.0	0.0	0.0	0.0	0.0	0.0	-0.506	-0.091	
6.0	0.0	0.0	0.0	0.0	0.0	-0.506	-0.029	
7.0	0.0	0.0	0.0	0.0	0.0	-0.506	-0.123	
8.0	0.0	0.0	0.0	0.0	0.0	-0.503	0.044	
9.0	0.0	0.0	0.0	0.0	0.0	-0.503	-0.123	
10.0	0.0	0.0	0.0	0.0	0.0	-0.5	-0.047	
11.0	0.0	0.0	0.0	0.0	0.0	-0.496	-0.082	
12.0	0.0	0.0	0.0	0.0	0.0	-0.493	0.003	
13.0	0.0	0.0	0.0	0.0	0.0	-0.49	-0.003	
14.0	0.0	0.0	0.0	0.0	0.0	-0.487	0.009	
15.0	0.0	0.0	0.0	0.0	0.0	-0.477	0.173	
0.0	0.0	0.0	0.0	0.0	0.0	-0.471	-0.105	
1.0	0.0	0.0	0.0	0.0	0.0	-0.458	-0.009	
2.0	0.0	0.0	0.0	0.0	0.0	-0.448	-0.035	
3.0	0.0	0.0	0.0	0.0	113.0	-0.432	-0.018	
4.0	0.0	0.0	0.0	0.0	249.0	-0.419	0.038	
5.0	0.0	0.0	0.0	0.0	372.0	-0.4	0.009	
6.0	0.0	0.0	0.0	0.0	473.0	-0.383	0.047	
7.0	0.0	0.0	0.0	0.0	555.0	-0.364	0.032	
8.0	0.0	0.0	0.0	0.0	616.0	-0.345	0.018	
9.0	0.0	0.0	0.0	0.0	660.0	-0.329	-0.015	
10.0	0.0	0.0	0.0	0.0	688.0	-0.309	-0.012	
11.0	0.0	0.0	0.0	0.0	702.0	-0.29	-0.023	
12.0	0.0	0.0	0.0	0.0	707.0	-0.271	0.032	
13.0	0.0	0.0	0.0	0.0	705.0	-0.251	-0.035	
14.0	0.0	0.0	0.0	0.0	696.0	-0.235	0.076	
15.0	0.0	0.0	0.0	0.0	683.0	-0.216	-0.044	
0.0	0.0	0.0	0.0	0.0	670.0	-0.206	0.05	
1.0	0.0	0.0	0.0	0.0	656.0	-0.193	-0.021	
2.0	0.0	0.0	0.0	0.0	645.0	-0.184	0.018	
3.0	0.0	0.0	0.0	0.0	636.0	-0.177	0.103	
4.0	0.0	0.0	0.0	0.0	630.0	-0.168	0.026	
5.0	0.0	0.0	0.0	0.0	626.0	-0.164	0.009	
6.0	0.0	0.0	0.0	0.0	623.0	-0.161	0.076	
7.0	0.0	0.0	0.0	0.0	621.0	-0.158	0.053	
8.0	0.0	0.0	0.0	0.0	622.0	-0.164	0.062	
9.0	0.0	0.0	0.0	0.0	622.0	-0.168	0.003	
10.0	0.0	0.0	0.0	0.0	623.0	-0.177	0.023	
11.0	0.0	0.0	0.0	0.0	622.0	-0.19	0.041	
12.0	0.0	0.0	0.0	0.0	620.0	-0.206	0.053	
13.0	0.0	0.0	0.0	0.0	619.0	-0.226	0.056	
14.0	0.0	0.0	0.0	0.0	616.0	-0.245	0.07	
15.0	0.0	0.0	0.0	0.0	612.0	-0.267	0.07	
0.0	0.0	0.0	0.0	0.0	609.0	-0.287	0.062	
1.0	0.0	0.0	0.0	0.0	607.0	-0.3	0.07	
2.0	0.0	0.0	0.0	0.0	605.0	-0.316	0.091	
3.0	0.0	0.0	0.0	0.0	601.0	-0.325	0.12	
4.0	0.0	0.0	0.0	0.0	596.0	-0.342	0.035	
5.0	0.0	0.0	0.0	0.0	589.0	-0.351	0.029	
6.0	0.0	0.0	0.0	0.0	579.0	-0.364	0.059	
7.0	0.0	0.0	0.0	0.0	568.0	-0.371	0.053	
8.0	0.0	0.0	0.0	0.0	556.0	-0.377	0.12	
9.0	0.0	0.0	0.0	0.0	547.0	-0.383	0.056	
10.0	0.0	0.0	0.0	0.0	538.0	-0.383	-0.021	
11.0	0.0	0.0	0.0	0.0	529.0	-0.383	-0.021	
12.0	0.0	0.0	0.0	0.0	519.0	-0.38	0.009	
13.0	0.0	0.0	0.0	0.0	512.0	-0.374	0.009	
14.0	0.0	0.0	0.0	0.0	503.0	-0.367	-0.003	
15.0	0.0	0.0	0.0	0.0	492.0	-0.358	-0.012	
0.0	0.0	0.0	0.0	0.0	483.0	-0.345	0.003	
1.0	0.0	0.0	0.0	0.0	476.0	-0.332	0.009	
2.0	0.0	0.0	0.0	0.0	471.0	-0.316	0.035	
3.0	0.0	0.0	0.0	0.0	466.0	-0.3	-0.015	
4.0	0.0	0.0	0.0	0.0	462.0	-0.284	0.012	
5.0	0.0	0.0	0.0	0.0	456.0	-0.267	0.047	
6.0	0.0	0.0	0.0	0.0	452.0	-0.248	-0.105	
7.0	0.0	0.0	0.0	0.0	448.0	-0.229	-0.076	
8.0	0.0	0.0	0.0	0.0	443.0	-0.206	-0.038	
9.0	0.0	0.0	0.0	0.0	440.0	-0.187	-0.082	
10.0	0.0	0.0	0.0	0.0	436.0	-0.164	-0.079	
11.0	0.0	0.0	0.0	0.0	432.0	-0.145	-0.076	
12.0	0.0	0.0	0.0	0.0	426.0	-0.122	-0.032	
13.0	0.0	0.0	0.0	0.0	422.0	-0.1	-0.073	
14.0	0.0	0.0	0.0	0.0	419.0	-0.074	-0.035	
15.0	0.0	0.0	0.0	0.0	418.0	-0.052	-0.023	
0.0	0.0	0.0	0.0	0.0	415.0	-0.026	0.009	
1.0	0.0	0.0	0.0	0.0	413.0	0.0	0.05	
2.0	0.0	0.0	0.0	0.0	410.0	0.023	0.064	
3.0	0.0	0.0	0.0	0.0	406.0	0.048	-0.05	
4.0	0.0	0.0	0.0	0.0	403.0	0.071	-0.094	
5.0	0.0	0.0	0.0	0.0	401.0	0.097	-0.12	
6.0	0.0	0.0	0.0	0.0	401.0	0.113	-0.103	
7.0	0.0	0.0	0.0	0.0	401.0	0.135	-0.152	
8.0	0.0	0.0	0.0	0.0	402.0	0.151	-0.152	
9.0	0.0	0.0	0.0	0.0	404.0	0.171	-0.138	
10.0	0.0	0.0	0.0	0.0	407.0	0.187	-0.085	
11.0	0.0	0.0	0.0	0.0	407.0	0.203	-0.105	
12.0	0.0	0.0	0.0	0.0	406.0	0.219	-0.023	
13.0	0.0	0.0	0.0	0.0	407.0	0.232	0.41	
14.0	0.0	0.0	0.0	0.0	408.0	0.248	0.706	
15.0	0.0	0.0	0.0	0.0	409.0	0.258	0.416	
0.0	0.0	0.0	0.0	0.0	410.0	0.267	-0.047	
1.0	0.0	0.0	0.0	0.0	413.0	0.277	-0.24	
2.0	0.0	0.0	0.0	0.0	415.0	0.284	-0.167	
3.0	0.0	0.0	0.0	0.0	419.0	0.29	-0.211	
4.0	0.0	0.0	0.0	0.0	423.0	0.296	-0.199	
5.0	0.0	0.0	0.0	0.0	428.0	0.3	-0.179	
6.0	0.0	0.0	0.0	0.0	432.0	0.303	-0.167	
7.0	0.0	0.0	0.0	0.0	435.0	0.303	-0.135	
8.0	0.0	0.0	0.0	0.0	439.0	0.306	-0.076	
9.0	0.0	0.0	0.0	0.0	443.0	0.303	-0.103	
10.0	0.0	0.0	0.0	0.0	448.0	0.306	-0.091	
11.0	0.0	0.0	0.0	0.0	451.0	0.303	-0.053	
12.0	0.0	0.0	0.0	0.0	454.0	0.303	-0.032	
13.0	0.0	0.0	0.0	0.0	455.0	0.3	-0.085	
14.0	0.0	0.0	0.0	0.0	457.0	0.293	-0.062	
15.0	0.0	0.0	0.0	0.0	458.0	0.29	-0.021	
0.0	0.0	0.0	0.0	0.0	458.0	0.284	0.003	
1.0	0.0	0.0	0.0	0.0	457.0	0.274	-0.026	
2.0	0.0	0.0	0.0	0.0	455.0	0.264	-0.015	
3.0	0.0	0.0	0.0	0.0	455.0	0.258	-0.006	
4.0	0.0	0.0	0.0	0.0	453.0	0.248	0.023	
5.0	0.0	0.0	0.0	0.0	453.0	0.235	0.035	
6.0	0.0	0.0	0.0	0.0	452.0	0.226	0.018	
7.0	0.0	0.0	0.0	0.0	451.0	0.209	0.053	
8.0	0.0	0.0	0.0	0.0	452.0	0.197	0.035	
9.0	0.0	0.0	0.0	0.0	454.0	0.18	0.062	
10.0	0.0	0.0	0.0	0.0	455.0	0.164	0.082	
11.0	0.0	0.0	0.0	0.0	457.0	0.148	0.091	
12.0	0.0	0.0	0.0	0.0	460.0	0.129	0.091	
13.0	0.0	0.0	0.0	0.0	468.0	0.113	0.129	
14.0	0.0	0.0	0.0	0.0	475.0	0.09	0.097	
15.0	0.0	0.0	0.0	0.0	483.0	0.074	0.062	
0.0	0.0	0.0	0.0	0.0	490.0	0.055	0.067	
1.0	0.0	0.0	0.0	0.0	497.0	0.039	-0.044	
2.0	0.0	0.0	0.0	0.0	504.0	0.019	-0.1	
3.0	0.0	0.0	0.0	0.0	508.0	0.003	-0.152	
4.0	0.0	0.0	0.0	0.0	514.0	-0.013	-0.138	
5.0	0.0	0.0	0.0	0.0	520.0	-0.029	-0.12	
6.0	0.0	0.0	0.0	0.0	524.0	-0.045	-0.144	
7.0	0.0	0.0	0.0	0.0	526.0	-0.058	-0.073	
8.0	0.0	0.0	0.0	0.0	528.0	-0.074	-0.111	
9.0	0.0	0.0	0.0	0.0	529.0	-0.084	-0.123	
10.0	0.0	0.0	0.0	0.0	528.0	-0.097	-0.064	
11.0	0.0	0.0	0.0	0.0	527.0	-0.11	-0.032	
12.0	0.0	0.0	0.0	0.0	527.0	-0.122	-0.053	
13.0	0.0	0.0	0.0	0.0	528.0	-0.132	-0.05	
14.0	0.0	0.0	0.0	0.0	530.0	-0.142	-0.026	
15.0	0.0	0.0	0.0	0.0	533.0	-0.151	-0.029	
0.0	0.0	0.0	0.0	0.0	536.0	-0.158	-0.059	
1.0	0.0	0.0	0.0	0.0	538.0	-0.168	-0.003	
2.0	0.0	0.0	0.0	0.0	540.0	-0.174	0.009	
3.0	0.0	0.0	0.0	0.0	543.0	-0.177	0.029	
4.0	0.0	0.0	0.0	0.0	547.0	-0.184	0.026	
5.0	0.0	0.0	0.0	0.0	549.0	-0.19	0.012	
6.0	0.0	0.0	0.0	0.0	551.0	-0.197	0.032	
7.0	0.0	0.0	0.0	0.0	551.0	-0.203	0.021	
8.0	0.0	0.0	0.0	0.0	551.0	-0.209	0.032	
9.0	0.0	0.0	0.0	0.0	549.0	-0.219	-0.012	
10.0	0.0	0.0	0.0	0.0	544.0	-0.229	-0.006	
11.0	0.0	0.0	0.0	0.0	539.0	-0.235	0.018	
12.0	0.0	0.0	0.0	0.0	535.0	-0.245	-0.003	
13.0	0.0	0.0	0.0	0.0	531.0	-0.255	-0.023	
14.0	0.0	0.0	0.0	0.0	528.0	-0.261	0.0	
15.0	0.0	0.0	0.0	0.0	523.0	-0.271	-0.059	
0.0	0.0	0.0	0.0	0.0	519.0	-0.277	-0.056	
1.0	0.0	0.0	0.0	0.0	517.0	-0.287	-0.032	
2.0	0.0	0.0	0.0	0.0	517.0	-0.293	0.006	
3.0	0.0	0.0	0.0	0.0	515.0	-0.3	0.0	
4.0	0.0	0.0	0.0	0.0	516.0	-0.306	-0.035	
5.0	0.0	0.0	0.0	0.0	517.0	-0.313	-0.032	
6.0	0.0	0.0	0.0	0.0	517.0	-0.319	-0.012	
7.0	0.0	0.0	0.0	0.0	516.0	-0.325	0.009	
8.0	0.0	0.0	0.0	0.0	517.0	-0.329	-0.012	
9.0	0.0	0.0	0.0	0.0	516.0	-0.335	-0.05	
10.0	0.0	0.0	0.0	0.0	515.0	-0.338	-0.026	
11.0	0.0	0.0	0.0	0.0	514.0	-0.342	0.021	
12.0	0.0	0.0	0.0	0.0	511.0	-0.345	0.0	
13.0	0.0	0.0	0.0	0.0	508.0	-0.348	-0.047	
14.0	0.0	0.0	0.0	0.0	506.0	-0.348	-0.021	
15.0	0.0	0.0	0.0	0.0	504.0	-0.348	-0.026	
0.0	0.0	0.0	0.0	0.0	499.0	-0.345	-0.056	
1.0	0.0	0.0	0.0	0.0	496.0	-0.345	-0.009	
2.0	0.0	0.0	0.0	0.0	493.0	-0.345	-0.035	
3.0	0.0	0.0	0.0	0.0	492.0	-0.342	-0.044	
4.0	0.0	0.0	0.0	0.0	490.0	-0.338	-0.035	
5.0	0.0	0.0	0.0	0.0	490.0	-0.338	-0.082	
6.0	0.0	0.0	0.0	0.0	489.0	-0.335	-0.029	
7.0	0.0	0.0	0.0	0.0	487.0	-0.335	0.041	
8.0	0.0	0.0	0.0	0.0	487.0	-0.335	-0.012	
9.0	0.0	0.0	0.0	0.0	486.0	-0.332	-0.015	
10.0	0.0	0.0	0.0	0.0	482.0	-0.332	0.009	
11.0	0.0	0.0	0.0	0.0	480.0	-0.329	-0.009	
12.0	0.0	0.0	0.0	0.0	478.0	-0.329	0.021	
13.0	0.0	0.0	0.0	0.0	478.0	-0.325	0.0	
14.0	0.0	0.0	0.0	0.0	476.0	-0.325	-0.018	
15.0	0.0	0.0	0.0	0.0	475.0	-0.322	-0.015	
0.0	0.0	0.0	0.0	0.0	473.0	-0.322	-0.009	
1.0	0.0	0.0	0.0	0.0	471.0	-0.322	-0.012	
2.0	0.0	0.0	0.0	0.0	468.0	-0.322	0.018	
3.0	0.0	0.0	0.0	0.0	464.0	-0.322	-0.032	
4.0	0.0	0.0	0.0	0.0	463.0	-0.322	0.009	
5.0	0.0	0.0	0.0	0.0	462.0	-0.325	-0.015	
6.0	0.0	0.0	0.0	0.0	460.0	-0.325	-0.023	
7.0	0.0	0.0	0.0	0.0	458.0	-0.325	-0.012	
8.0	0.0	0.0	0.0	0.0	457.0	-0.325	0.003	
9.0	0.0	0.0	0.0	0.0	456.0	-0.329	-0.038	
10.0	0.0	0.0	0.0	0.0	457.0	-0.329	-0.006	
11.0	0.0	0.0	0.0	0.0	458.0	-0.329	0.0	
12.0	0.0	0.0	0.0	0.0	457.0	-0.329	-0.003	
13.0	0.0	0.0	0.0	0.0	458.0	-0.332	0.009	
14.0	0.0	0.0	0.0	0.0	458.0	-0.332	0.006	
15.0	0.0	0.0	0.0	0.0	457.0	-0.332	-0.018	
0.0	0.0	0.0	0.0	0.0	455.0	-0.332	0.026	
1.0	0.0	0.0	0.0	0.0	454.0	-0.335	0.035	
2.0	0.0	0.0	0.0	0.0	454.0	-0.335	0.047	
3.0	0.0	0.0	0.0	0.0	453.0	-0.335	0.018	
4.0	0.0	0.0	0.0	0.0	454.0	-0.335	0.082	
5.0	0.0	0.0	0.0	0.0	453.0	-0.335	0.088	
6.0	0.0	0.0	0.0	0.0	451.0	-0.335	0.073	
7.0	0.0	0.0	0.0	0.0	453.0	-0.338	0.091	
8.0	0.0	0.0	0.0	0.0	453.0	-0.338	0.018	
9.0	0.0	0.0	0.0	0.0	455.0	-0.338	-0.026	
10.0	0.0	0.0	0.0	0.0	455.0	-0.338	-0.059	
11.0	0.0	0.0	0.0	0.0	455.0	-0.335	-0.085	
12.0	0.0	0.0	0.0	0.0	455.0	-0.335	-0.091	
13.0	0.0	0.0	0.0	0.0	454.0	-0.335	-0.091	
14.0	0.0	0.0	0.0	0.0	452.0	-0.335	-0.003	
15.0	0.0	0.0	0.0	0.0	451.0	-0.332	-0.041	
0.0	0.0	0.0	0.0	0.0	449.0	-0.332	-0.073	
1.0	0.0	0.0	0.0	0.0	449.0	-0.329	-0.038	
2.0	0.0	0.0	0.0	0.0	446.0	-0.325	0.34	
3.0	0.0	0.0	0.0	0.0	443.0	-0.322	0.747	
4.0	0.0	0.0	0.0	0.0	441.0	-0.319	0.548	
5.0	0.0	0.0	0.0	0.0	440.0	-0.316	0.041	
6.0	0.0	0.0	0.0	0.0	438.0	-0.316	-0.097	
7.0	0.0	0.0	0.0	0.0	438.0	-0.313	-0.129	
8.0	0.0	0.0	0.0	0.0	438.0	-0.313	-0.091	
9.0	0.0	0.0	0.0	0.0	438.0	-0.313	-0.105	
10.0	0.0	0.0	0.0	0.0	436.0	-0.313	-0.1	
11.0	0.0	0.0	0.0	0.0	435.0	-0.316	-0.079	
12.0	0.0	0.0	0.0	0.0	435.0	-0.316	-0.053	
13.0	0.0	0.0	0.0	0.0	434.0	-0.319	-0.07	
14.0	0.0	0.0	0.0	0.0	434.0	-0.322	-0.053	
15.0	0.0	0.0	0.0	0.0	434.0	-0.325	-0.032	
0.0	0.0	0.0	0.0	0.0	433.0	-0.325	-0.009	
1.0	0.0	0.0	0.0	0.0	432.0	-0.332	-0.009	
2.0	0.0	0.0	0.0	0.0	431.0	-0.335	0.015	
3.0	0.0	0.0	0.0	0.0	430.0	-0.338	0.032	
4.0	0.0	0.0	0.0	0.0	429.0	-0.345	0.009	
5.0	0.0	0.0	0.0	0.0	431.0	-0.354	0.0	
6.0	0.0	0.0	0.0	0.0	432.0	-0.361	0.085	
7.0	0.0	0.0	0.0	0.0	432.0	-0.367	0.038	
8.0	0.0	0.0	0.0	0.0	431.0	-0.377	0.029	
9.0	0.0	0.0	0.0	0.0	430.0	-0.387	0.041	
10.0	0.0	0.0	0.0	0.0	430.0	-0.393	0.059	
11.0	0.0	0.0	0.0	0.0	430.0	-0.403	0.056	
12.0	0.0	0.0	0.0	0.0	431.0	-0.413	0.059	
13.0	0.0	0.0	0.0	0.0	432.0	-0.422	0.05	
14.0	0.0	0.0	0.0	0.0	434.0	-0.432	0.073	
15.0	0.0	0.0	0.0	0.0	438.0	-0.442	0.097	
0.0	0.0	0.0	0.0	0.0	443.0	-0.451	0.103	
1.0	0.0	0.0	0.0	0.0	451.0	-0.461	0.059	
2.0	0.0	0.0	0.0	0.0	457.0	-0.471	0.097	
3.0	0.0	0.0	0.0	0.0	464.0	-0.477	0.041	
4.0	0.0	0.0	0.0	0.0	475.0	-0.49	0.059	
5.0	0.0	0.0	0.0	0.0	486.0	-0.5	0.006	
6.0	0.0	0.0	0.0	0.0	495.0	-0.506	-0.07	
7.0	0.0	0.0	0.0	0.0	506.0	-0.516	-0.12	
8.0	0.0	0.0	0.0	0.0	515.0	-0.525	-0.158	
9.0	0.0	0.0	0.0	0.0	522.0	-0.535	-0.193	
10.0	0.0	0.0	0.0	0.0	527.0	-0.541	-0.217	
11.0	0.0	0.0	0.0	0.0	531.0	-0.551	-0.202	
12.0	0.0	0.0	0.0	0.0	533.0	-0.558	-0.179	
13.0	0.0	0.0	0.0	0.0	535.0	-0.564	-0.193	
14.0	0.0	0.0	0.0	0.0	534.0	-0.57	-0.17	
15.0	0.0	0.0	0.0	0.0	532.0	-0.577	-0.149	
0.0	0.0	0.0	0.0	0.0	531.0	-0.58	-0.152	
1.0	0.0	0.0	0.0	0.0	532.0	-0.58	-0.132	
2.0	0.0	0.0	0.0	0.0	533.0	-0.58	-0.108	
3.0	0.0	0.0	0.0	0.0	536.0	-0.583	-0.064	
4.0	0.0	0.0	0.0	0.0	539.0	-0.58	-0.094	
5.0	0.0	0.0	0.0	0.0	542.0	-0.58	-0.018	
6.0	0.0	0.0	0.0	0.0	547.0	-0.577	-0.056	
7.0	0.0	0.0	0.0	0.0	550.0	-0.574	-0.026	
8.0	0.0	0.0	0.0	0.0	555.0	-0.567	0.021	
9.0	0.0	0.0	0.0	0.0	558.0	-0.561	-0.038	
10.0	0.0	0.0	0.0	0.0	562.0	-0.554	0.026	
11.0	0.0	0.0	0.0	0.0	566.0	-0.554	0.012	
12.0	0.0	0.0	0.0	0.0	566.0	-0.551	0.009	
13.0	0.0	0.0	0.0	0.0	566.0	-0.548	0.0	
14.0	0.0	0.0	0.0	0.0	564.0	-0.545	-0.021	
15.0	0.0	0.0	0.0	0.0	561.0	-0.545	-0.047	
0.0	0.0	0.0	0.0	0.0	559.0	-0.541	-0.023	
1.0	0.0	0.0	0.0	0.0	556.0	-0.538	-0.041	
2.0	0.0	0.0	0.0	0.0	552.0	-0.541	-0.041	
3.0	0.0	0.0	0.0	0.0	548.0	-0.541	-0.082	
4.0	0.0	0.0	0.0	0.0	543.0	-0.541	-0.053	
5.0	0.0	0.0	0.0	0.0	537.0	-0.541	-0.073	
6.0	0.0	0.0	0.0	0.0	534.0	-0.538	-0.056	
7.0	0.0	0.0	0.0	0.0	531.0	-0.538	-0.029	
8.0	0.0	0.0	0.0	0.0	527.0	-0.538	-0.023	
9.0	0.0	0.0	0.0	0.0	524.0	-0.538	-0.029	
10.0	0.0	0.0	0.0	0.0	524.0	-0.538	-0.003	
11.0	0.0	0.0	0.0	0.0	525.0	-0.538	0.038	
12.0	0.0	0.0	0.0	0.0	525.0	-0.538	0.023	
13.0	0.0	0.0	0.0	0.0	524.0	-0.538	0.006	
14.0	0.0	0.0	0.0	0.0	525.0	-0.538	0.009	
15.0	0.0	0.0	0.0	0.0	524.0	-0.538	0.018	
0.0	0.0	0.0	0.0	0.0	522.0	-0.535	0.009	
1.0	0.0	0.0	0.0	0.0	519.0	-0.535	0.023	
2.0	0.0	0.0	0.0	0.0	521.0	-0.532	0.026	
3.0	0.0	0.0	0.0	0.0	521.0	-0.529	-0.003	
4.0	0.0	0.0	0.0	0.0	518.0	-0.525	0.05	
5.0	0.0	0.0	0.0	0.0	518.0	-0.519	0.035	
6.0	0.0	0.0	0.0	0.0	516.0	-0.512	0.038	
7.0	0.0	0.0	0.0	0.0	513.0	-0.506	0.015	
8.0	0.0	0.0	0.0	0.0	510.0	-0.5	0.035	
9.0	0.0	0.0	0.0	0.0	510.0	-0.493	0.032	
10.0	0.0	0.0	0.0	0.0	509.0	-0.487	0.041	
11.0	0.0	0.0	0.0	0.0	507.0	-0.48	0.041	
12.0	0.0	0.0	0.0	0.0	507.0	-0.477	0.044	
13.0	0.0	0.0	0.0	0.0	505.0	-0.471	0.062	
14.0	0.0	0.0	0.0	0.0	505.0	-0.464	0.073	
15.0	0.0	0.0	0.0	0.0	503.0	-0.461	0.032	
0.0	0.0	0.0	0.0	0.0	500.0	-0.454	0.059	
1.0	0.0	0.0	0.0	0.0	499.0	-0.451	0.012	
2.0	0.0	0.0	0.0	0.0	499.0	-0.445	0.018	
3.0	0.0	0.0	0.0	0.0	498.0	-0.442	0.012	
4.0	0.0	0.0	0.0	0.0	498.0	-0.438	0.0	
5.0	0.0	0.0	0.0	0.0	497.0	-0.435	-0.021	
6.0	0.0	0.0	0.0	0.0	496.0	-0.429	-0.035	
7.0	0.0	0.0	0.0	0.0	495.0	-0.425	-0.003	
8.0	0.0	0.0	0.0	0.0	495.0	-0.419	-0.023	
9.0	0.0	0.0	0.0	0.0	495.0	-0.416	-0.035	
10.0	0.0	0.0	0.0	0.0	492.0	-0.409	0.018	
11.0	0.0	0.0	0.0	0.0	490.0	-0.403	0.021	
12.0	0.0	0.0	0.0	0.0	487.0	-0.396	0.012	
13.0	0.0	0.0	0.0	0.0	487.0	-0.39	-0.003	
14.0	0.0	0.0	0.0	0.0	487.0	-0.38	0.006	
15.0	0.0	0.0	0.0	0.0	488.0	-0.367	0.006	
0.0	0.0	0.0	0.0	0.0	488.0	-0.354	0.015	
1.0	0.0	0.0	0.0	0.0	488.0	-0.338	0.003	
2.0	0.0	0.0	0.0	0.0	487.0	-0.322	-0.006	
3.0	0.0	0.0	0.0	0.0	486.0	-0.3	0.0	
4.0	0.0	0.0	0.0	0.0	484.0	-0.277	0.018	
5.0	0.0	0.0	0.0	0.0	483.0	-0.255	0.029	
6.0	0.0	0.0	0.0	0.0	482.0	-0.229	0.0	
7.0	0.0	0.0	0.0	0.0	478.0	-0.206	-0.012	
8.0	0.0	0.0	0.0	0.0	476.0	-0.18	-0.015	
9.0	0.0	0.0	0.0	0.0	478.0	-0.155	0.009	
10.0	0.0	0.0	0.0	0.0	477.0	-0.129	0.059	
11.0	0.0	0.0	0.0	0.0	476.0	-0.103	0.141	
12.0	0.0	0.0	0.0	0.0	475.0	-0.077	0.12	
13.0	0.0	0.0	0.0	0.0	476.0	-0.052	0.129	
