# OpenSignals Text File Format. Version 1
# {"84:BA:20:AE:BC:92": {"position": 0, "device": "bitalino_rev", "device name": "84:BA:20:AE:BC:92", "device connection": "BTH84:BA:20:AE:BC:92", "sampling rate": 100, "resolution": [4, 1, 1, 1, 1, 10, 10, 10], "firmware version": 1282, "comments": "", "keywords": "", "mode": 0, "sync interval": 2, "date": "2025-10-22", "time": "11:11:56.201", "channels": [2, 3, 4], "sensor": ["RAW", "RESPBIT", "ECGBIT"], "label": ["A2", "A3", "A4"], "column": ["nSeq", "I1", "I2", "O1", "O2", "A2", "A3", "A4"], "special": [{}, {}, {}], "digital IO": [0, 0, 1, 1], "convertedValues": 1}}
# EndOfHeader
0.0	0.0	0.0	0.0	0.0	558.0	-1.034	0.015	
1.0	0.0	0.0	0.0	0.0	554.0	-1.034	-0.009	
2.0	0.0	0.0	0.0	0.0	549.0	-1.038	-0.015	
3.0	0.0	0.0	0.0	0.0	545.0	-1.038	-0.047	
4.0	0.0	0.0	0.0	0.0	541.0	-1.034	-0.032	
5.0	0.0	0.0	0.0	0.0	537.0	-1.034	-0.021	
6.0	0.0	0.0	0.0	0.0	535.0	-1.038	-0.044	
7.0	0.0	0.0	0.0	0.0	532.0	-1.034	-0.035	
8.0	0.0	0.0	0.0	0.0	531.0	-1.034	-0.015	
9.0	0.0	0.0	0.0	0.0	531.0	-1.038	-0.029	
10.0	0.0	0.0	0.0	0.0	531.0	-1.041	-0.015	
11.0	0.0	0.0	0.0	0.0	531.0	-1.041	0.038	
12.0	0.0	0.0	0.0	0.0	530.0	-1.044	0.073	
13.0	0.0	0.0	0.0	0.0	531.0	-1.041	0.056	
14.0	0.0	0.0	0.0	0.0	529.0	-1.047	0.094	
15.0	0.0	0.0	0.0	0.0	527.0	-1.047	0.132	
0.0	0.0	0.0	0.0	0.0	524.0	-1.047	0.126	
1.0	0.0	0.0	0.0	0.0	521.0	-1.054	0.009	
2.0	0.0	0.0	0.0	0.0	519.0	-1.051	-0.032	
3.0	0.0	0.0	0.0	0.0	517.0	-1.057	-0.067	
4.0	0.0	0.0	0.0	0.0	515.0	-1.054	-0.114	
5.0	0.0	0.0	0.0	0.0	514.0	-1.051	-0.111	
6.0	0.0	0.0	0.0	0.0	512.0	-1.054	-0.085	
7.0	0.0	0.0	0.0	0.0	511.0	-1.051	-0.105	
8.0	0.0	0.0	0.0	0.0	508.0	-1.044	-0.108	
9.0	0.0	0.0	0.0	0.0	507.0	-1.044	0.062	
10.0	0.0	0.0	0.0	0.0	506.0	-1.038	0.516	
11.0	0.0	0.0	0.0	0.0	507.0	-1.034	0.562	
12.0	0.0	0.0	0.0	0.0	508.0	-1.025	0.041	
13.0	0.0	0.0	0.0	0.0	510.0	-1.022	-0.199	
14.0	0.0	0.0	0.0	0.0	511.0	-1.018	-0.231	
15.0	0.0	0.0	0.0	0.0	512.0	-1.012	-0.152	
0.0	0.0	0.0	0.0	0.0	512.0	-1.012	-0.141	
1.0	0.0	0.0	0.0	0.0	511.0	-1.009	-0.12	
2.0	0.0	0.0	0.0	0.0	510.0	-1.005	-0.105	
3.0	0.0	0.0	0.0	0.0	507.0	-1.005	-0.129	
4.0	0.0	0.0	0.0	0.0	507.0	-0.996	-0.117	
5.0	0.0	0.0	0.0	0.0	505.0	-0.996	-0.108	
6.0	0.0	0.0	0.0	0.0	504.0	-0.993	-0.1	
7.0	0.0	0.0	0.0	0.0	503.0	-0.993	-0.097	
8.0	0.0	0.0	0.0	0.0	501.0	-0.986	-0.073	
9.0	0.0	0.0	0.0	0.0	499.0	-0.986	-0.029	
10.0	0.0	0.0	0.0	0.0	499.0	-0.983	-0.018	
11.0	0.0	0.0	0.0	0.0	500.0	-0.983	-0.021	
12.0	0.0	0.0	0.0	0.0	501.0	-0.976	0.012	
13.0	0.0	0.0	0.0	0.0	501.0	-0.98	0.0	
14.0	0.0	0.0	0.0	0.0	501.0	-0.976	0.047	
15.0	0.0	0.0	0.0	0.0	503.0	-0.973	0.023	
0.0	0.0	0.0	0.0	0.0	504.0	-0.967	0.032	
1.0	0.0	0.0	0.0	0.0	507.0	-0.97	0.012	
2.0	0.0	0.0	0.0	0.0	508.0	-0.967	0.026	
3.0	0.0	0.0	0.0	0.0	513.0	-0.96	-0.032	
4.0	0.0	0.0	0.0	0.0	519.0	-0.954	0.003	
5.0	0.0	0.0	0.0	0.0	528.0	-0.954	-0.041	
6.0	0.0	0.0	0.0	0.0	538.0	-0.944	-0.021	
7.0	0.0	0.0	0.0	0.0	549.0	-0.941	-0.038	
8.0	0.0	0.0	0.0	0.0	559.0	-0.938	-0.059	
9.0	0.0	0.0	0.0	0.0	568.0	-0.938	-0.062	
10.0	0.0	0.0	0.0	0.0	579.0	-0.935	-0.032	
11.0	0.0	0.0	0.0	0.0	587.0	-0.931	-0.056	
12.0	0.0	0.0	0.0	0.0	590.0	-0.928	-0.047	
13.0	0.0	0.0	0.0	0.0	592.0	-0.928	-0.021	
14.0	0.0	0.0	0.0	0.0	591.0	-0.922	-0.003	
15.0	0.0	0.0	0.0	0.0	590.0	-0.925	-0.05	
0.0	0.0	0.0	0.0	0.0	588.0	-0.918	0.021	
1.0	0.0	0.0	0.0	0.0	586.0	-0.909	-0.006	
2.0	0.0	0.0	0.0	0.0	584.0	-0.906	0.023	
3.0	0.0	0.0	0.0	0.0	583.0	-0.893	0.05	
4.0	0.0	0.0	0.0	0.0	581.0	-0.883	0.05	
5.0	0.0	0.0	0.0	0.0	581.0	-0.867	0.047	
6.0	0.0	0.0	0.0	0.0	580.0	-0.844	0.032	
7.0	0.0	0.0	0.0	0.0	580.0	-0.828	0.079	
8.0	0.0	0.0	0.0	0.0	580.0	-0.799	0.07	
9.0	0.0	0.0	0.0	0.0	577.0	-0.773	0.029	
10.0	0.0	0.0	0.0	0.0	577.0	-0.751	0.015	
11.0	0.0	0.0	0.0	0.0	578.0	-0.725	0.029	
12.0	0.0	0.0	0.0	0.0	577.0	-0.693	0.018	
13.0	0.0	0.0	0.0	0.0	575.0	-0.67	-0.047	
14.0	0.0	0.0	0.0	0.0	573.0	-0.641	-0.012	
15.0	0.0	0.0	0.0	0.0	569.0	-0.612	-0.018	
0.0	0.0	0.0	0.0	0.0	567.0	-0.583	-0.047	
1.0	0.0	0.0	0.0	0.0	563.0	-0.554	-0.018	
2.0	0.0	0.0	0.0	0.0	560.0	-0.529	-0.038	
3.0	0.0	0.0	0.0	0.0	555.0	-0.5	-0.041	
4.0	0.0	0.0	0.0	0.0	552.0	-0.471	-0.012	
5.0	0.0	0.0	0.0	0.0	547.0	-0.442	-0.047	
6.0	0.0	0.0	0.0	0.0	543.0	-0.413	-0.029	
7.0	0.0	0.0	0.0	0.0	540.0	-0.38	-0.029	
8.0	0.0	0.0	0.0	0.0	539.0	-0.348	-0.035	
9.0	0.0	0.0	0.0	0.0	537.0	-0.316	-0.079	
10.0	0.0	0.0	0.0	0.0	536.0	-0.287	-0.038	
11.0	0.0	0.0	0.0	0.0	536.0	-0.255	-0.059	
12.0	0.0	0.0	0.0	0.0	535.0	-0.219	-0.059	
13.0	0.0	0.0	0.0	0.0	535.0	-0.19	-0.041	
14.0	0.0	0.0	0.0	0.0	536.0	-0.158	-0.012	
15.0	0.0	0.0	0.0	0.0	535.0	-0.126	-0.015	
0.0	0.0	0.0	0.0	0.0	532.0	-0.093	-0.003	
1.0	0.0	0.0	0.0	0.0	530.0	-0.061	-0.018	
2.0	0.0	0.0	0.0	0.0	529.0	-0.029	0.05	
3.0	0.0	0.0	0.0	0.0	527.0	0.003	0.073	
4.0	0.0	0.0	0.0	0.0	528.0	0.035	0.064	
5.0	0.0	0.0	0.0	0.0	528.0	0.068	0.135	
6.0	0.0	0.0	0.0	0.0	528.0	0.1	0.149	
7.0	0.0	0.0	0.0	0.0	527.0	0.132	0.103	
8.0	0.0	0.0	0.0	0.0	525.0	0.164	0.05	
9.0	0.0	0.0	0.0	0.0	523.0	0.197	-0.041	
10.0	0.0	0.0	0.0	0.0	521.0	0.229	-0.094	
11.0	0.0	0.0	0.0	0.0	519.0	0.258	-0.114	
12.0	0.0	0.0	0.0	0.0	518.0	0.29	-0.105	
13.0	0.0	0.0	0.0	0.0	516.0	0.319	-0.141	
14.0	0.0	0.0	0.0	0.0	515.0	0.354	-0.082	
15.0	0.0	0.0	0.0	0.0	514.0	0.387	-0.117	
0.0	0.0	0.0	0.0	0.0	514.0	0.416	0.059	
1.0	0.0	0.0	0.0	0.0	513.0	0.445	0.475	
2.0	0.0	0.0	0.0	0.0	512.0	0.477	0.562	
3.0	0.0	0.0	0.0	0.0	512.0	0.506	0.07	
4.0	0.0	0.0	0.0	0.0	513.0	0.535	-0.132	
5.0	0.0	0.0	0.0	0.0	512.0	0.564	-0.231	
6.0	0.0	0.0	0.0	0.0	510.0	0.59	-0.208	
7.0	0.0	0.0	0.0	0.0	508.0	0.612	-0.17	
8.0	0.0	0.0	0.0	0.0	507.0	0.641	-0.132	
9.0	0.0	0.0	0.0	0.0	505.0	0.667	-0.132	
10.0	0.0	0.0	0.0	0.0	504.0	0.693	-0.073	
11.0	0.0	0.0	0.0	0.0	504.0	0.722	-0.056	
12.0	0.0	0.0	0.0	0.0	504.0	0.744	-0.035	
13.0	0.0	0.0	0.0	0.0	503.0	0.764	-0.038	
14.0	0.0	0.0	0.0	0.0	503.0	0.783	-0.015	
15.0	0.0	0.0	0.0	0.0	501.0	0.802	-0.006	
0.0	0.0	0.0	0.0	0.0	500.0	0.825	-0.006	
1.0	0.0	0.0	0.0	0.0	498.0	0.844	0.006	
2.0	0.0	0.0	0.0	0.0	496.0	0.864	0.026	
3.0	0.0	0.0	0.0	0.0	495.0	0.88	0.047	
4.0	0.0	0.0	0.0	0.0	496.0	0.896	0.059	
5.0	0.0	0.0	0.0	0.0	495.0	0.912	0.026	
6.0	0.0	0.0	0.0	0.0	496.0	0.925	0.059	
7.0	0.0	0.0	0.0	0.0	496.0	0.938	0.038	
8.0	0.0	0.0	0.0	0.0	497.0	0.947	0.064	
9.0	0.0	0.0	0.0	0.0	500.0	0.957	0.021	
10.0	0.0	0.0	0.0	0.0	507.0	0.967	0.047	
11.0	0.0	0.0	0.0	0.0	514.0	0.976	0.029	
12.0	0.0	0.0	0.0	0.0	521.0	0.986	0.009	
13.0	0.0	0.0	0.0	0.0	529.0	0.996	-0.062	
14.0	0.0	0.0	0.0	0.0	540.0	1.005	-0.032	
15.0	0.0	0.0	0.0	0.0	551.0	1.015	-0.047	
0.0	0.0	0.0	0.0	0.0	561.0	1.025	-0.023	
1.0	0.0	0.0	0.0	0.0	571.0	1.031	-0.044	
2.0	0.0	0.0	0.0	0.0	579.0	1.041	-0.05	
3.0	0.0	0.0	0.0	0.0	585.0	1.047	0.021	
4.0	0.0	0.0	0.0	0.0	591.0	1.054	-0.003	
5.0	0.0	0.0	0.0	0.0	595.0	1.063	0.012	
6.0	0.0	0.0	0.0	0.0	598.0	1.07	0.0	
7.0	0.0	0.0	0.0	0.0	598.0	1.08	0.015	
8.0	0.0	0.0	0.0	0.0	597.0	1.086	0.012	
9.0	0.0	0.0	0.0	0.0	594.0	1.096	-0.006	
10.0	0.0	0.0	0.0	0.0	590.0	1.102	0.044	
11.0	0.0	0.0	0.0	0.0	584.0	1.112	0.041	
12.0	0.0	0.0	0.0	0.0	580.0	1.118	0.035	
13.0	0.0	0.0	0.0	0.0	575.0	1.128	0.035	
14.0	0.0	0.0	0.0	0.0	573.0	1.134	0.044	
15.0	0.0	0.0	0.0	0.0	571.0	1.141	0.021	
0.0	0.0	0.0	0.0	0.0	569.0	1.144	-0.003	
1.0	0.0	0.0	0.0	0.0	567.0	1.15	0.012	
2.0	0.0	0.0	0.0	0.0	566.0	1.154	0.003	
3.0	0.0	0.0	0.0	0.0	564.0	1.154	0.012	
4.0	0.0	0.0	0.0	0.0	561.0	1.157	-0.015	
5.0	0.0	0.0	0.0	0.0	560.0	1.157	-0.009	
6.0	0.0	0.0	0.0	0.0	558.0	1.157	0.009	
7.0	0.0	0.0	0.0	0.0	557.0	1.154	-0.044	
8.0	0.0	0.0	0.0	0.0	555.0	1.154	-0.029	
9.0	0.0	0.0	0.0	0.0	551.0	1.15	-0.05	
10.0	0.0	0.0	0.0	0.0	549.0	1.144	-0.05	
11.0	0.0	0.0	0.0	0.0	546.0	1.138	-0.07	
12.0	0.0	0.0	0.0	0.0	544.0	1.131	-0.032	
13.0	0.0	0.0	0.0	0.0	541.0	1.125	-0.047	
14.0	0.0	0.0	0.0	0.0	540.0	1.112	-0.062	
15.0	0.0	0.0	0.0	0.0	539.0	1.105	-0.026	
0.0	0.0	0.0	0.0	0.0	539.0	1.096	-0.035	
1.0	0.0	0.0	0.0	0.0	538.0	1.086	0.009	
2.0	0.0	0.0	0.0	0.0	536.0	1.076	0.026	
3.0	0.0	0.0	0.0	0.0	535.0	1.063	0.047	
4.0	0.0	0.0	0.0	0.0	534.0	1.051	0.103	
5.0	0.0	0.0	0.0	0.0	534.0	1.038	0.076	
6.0	0.0	0.0	0.0	0.0	532.0	1.025	0.062	
7.0	0.0	0.0	0.0	0.0	532.0	1.009	-0.035	
8.0	0.0	0.0	0.0	0.0	531.0	0.996	-0.108	
9.0	0.0	0.0	0.0	0.0	530.0	0.98	-0.155	
10.0	0.0	0.0	0.0	0.0	530.0	0.967	-0.123	
11.0	0.0	0.0	0.0	0.0	529.0	0.954	-0.138	
12.0	0.0	0.0	0.0	0.0	527.0	0.941	-0.123	
13.0	0.0	0.0	0.0	0.0	526.0	0.925	-0.129	
14.0	0.0	0.0	0.0	0.0	525.0	0.915	-0.141	
15.0	0.0	0.0	0.0	0.0	523.0	0.902	0.132	
0.0	0.0	0.0	0.0	0.0	521.0	0.893	0.577	
1.0	0.0	0.0	0.0	0.0	519.0	0.88	0.472	
2.0	0.0	0.0	0.0	0.0	517.0	0.87	0.044	
3.0	0.0	0.0	0.0	0.0	515.0	0.857	-0.138	
4.0	0.0	0.0	0.0	0.0	511.0	0.841	-0.211	
5.0	0.0	0.0	0.0	0.0	509.0	0.825	-0.211	
6.0	0.0	0.0	0.0	0.0	508.0	0.809	-0.179	
7.0	0.0	0.0	0.0	0.0	507.0	0.793	-0.179	
8.0	0.0	0.0	0.0	0.0	507.0	0.777	-0.141	
9.0	0.0	0.0	0.0	0.0	506.0	0.761	-0.141	
10.0	0.0	0.0	0.0	0.0	505.0	0.741	-0.097	
11.0	0.0	0.0	0.0	0.0	504.0	0.722	-0.129	
12.0	0.0	0.0	0.0	0.0	503.0	0.699	-0.076	
13.0	0.0	0.0	0.0	0.0	500.0	0.674	-0.085	
14.0	0.0	0.0	0.0	0.0	497.0	0.651	-0.026	
15.0	0.0	0.0	0.0	0.0	495.0	0.628	-0.047	
0.0	0.0	0.0	0.0	0.0	495.0	0.606	-0.023	
1.0	0.0	0.0	0.0	0.0	496.0	0.583	-0.041	
2.0	0.0	0.0	0.0	0.0	497.0	0.564	-0.023	
3.0	0.0	0.0	0.0	0.0	498.0	0.538	0.0	
4.0	0.0	0.0	0.0	0.0	500.0	0.516	0.056	
5.0	0.0	0.0	0.0	0.0	500.0	0.49	0.035	
6.0	0.0	0.0	0.0	0.0	499.0	0.467	0.038	
7.0	0.0	0.0	0.0	0.0	501.0	0.445	0.035	
8.0	0.0	0.0	0.0	0.0	504.0	0.419	0.05	
9.0	0.0	0.0	0.0	0.0	507.0	0.39	0.006	
10.0	0.0	0.0	0.0	0.0	512.0	0.367	0.021	
11.0	0.0	0.0	0.0	0.0	519.0	0.338	0.021	
12.0	0.0	0.0	0.0	0.0	527.0	0.316	-0.006	
13.0	0.0	0.0	0.0	0.0	538.0	0.29	-0.015	
14.0	0.0	0.0	0.0	0.0	548.0	0.264	0.003	
15.0	0.0	0.0	0.0	0.0	558.0	0.242	-0.023	
0.0	0.0	0.0	0.0	0.0	568.0	0.213	0.003	
1.0	0.0	0.0	0.0	0.0	575.0	0.19	-0.035	
2.0	0.0	0.0	0.0	0.0	579.0	0.164	-0.015	
3.0	0.0	0.0	0.0	0.0	582.0	0.139	-0.044	
4.0	0.0	0.0	0.0	0.0	586.0	0.116	-0.026	
5.0	0.0	0.0	0.0	0.0	588.0	0.09	-0.044	
6.0	0.0	0.0	0.0	0.0	587.0	0.071	-0.021	
7.0	0.0	0.0	0.0	0.0	585.0	0.048	-0.038	
8.0	0.0	0.0	0.0	0.0	583.0	0.023	0.009	
9.0	0.0	0.0	0.0	0.0	580.0	0.003	-0.021	
10.0	0.0	0.0	0.0	0.0	575.0	-0.016	0.038	
11.0	0.0	0.0	0.0	0.0	573.0	-0.039	0.047	
12.0	0.0	0.0	0.0	0.0	569.0	-0.058	0.056	
13.0	0.0	0.0	0.0	0.0	567.0	-0.077	0.006	
14.0	0.0	0.0	0.0	0.0	566.0	-0.097	0.067	
15.0	0.0	0.0	0.0	0.0	564.0	-0.116	0.021	
0.0	0.0	0.0	0.0	0.0	562.0	-0.135	0.047	
1.0	0.0	0.0	0.0	0.0	562.0	-0.155	0.015	
2.0	0.0	0.0	0.0	0.0	560.0	-0.174	-0.009	
3.0	0.0	0.0	0.0	0.0	558.0	-0.197	-0.015	
4.0	0.0	0.0	0.0	0.0	555.0	-0.213	-0.015	
5.0	0.0	0.0	0.0	0.0	552.0	-0.235	-0.064	
6.0	0.0	0.0	0.0	0.0	550.0	-0.255	-0.029	
7.0	0.0	0.0	0.0	0.0	546.0	-0.274	-0.029	
8.0	0.0	0.0	0.0	0.0	543.0	-0.296	-0.038	
9.0	0.0	0.0	0.0	0.0	541.0	-0.316	-0.044	
10.0	0.0	0.0	0.0	0.0	540.0	-0.338	-0.047	
11.0	0.0	0.0	0.0	0.0	537.0	-0.358	-0.044	
12.0	0.0	0.0	0.0	0.0	536.0	-0.377	0.006	
13.0	0.0	0.0	0.0	0.0	534.0	-0.403	-0.035	
14.0	0.0	0.0	0.0	0.0	532.0	-0.422	-0.047	
15.0	0.0	0.0	0.0	0.0	530.0	-0.448	-0.038	
0.0	0.0	0.0	0.0	0.0	529.0	-0.471	-0.023	
1.0	0.0	0.0	0.0	0.0	527.0	-0.49	-0.003	
2.0	0.0	0.0	0.0	0.0	525.0	-0.516	0.059	
3.0	0.0	0.0	0.0	0.0	523.0	-0.535	0.059	
4.0	0.0	0.0	0.0	0.0	523.0	-0.558	0.129	
5.0	0.0	0.0	0.0	0.0	520.0	-0.574	0.085	
6.0	0.0	0.0	0.0	0.0	519.0	-0.593	0.079	
7.0	0.0	0.0	0.0	0.0	517.0	-0.609	0.05	
8.0	0.0	0.0	0.0	0.0	515.0	-0.628	-0.041	
9.0	0.0	0.0	0.0	0.0	513.0	-0.641	-0.146	
10.0	0.0	0.0	0.0	0.0	513.0	-0.657	-0.076	
11.0	0.0	0.0	0.0	0.0	511.0	-0.667	-0.094	
12.0	0.0	0.0	0.0	0.0	511.0	-0.68	-0.091	
13.0	0.0	0.0	0.0	0.0	510.0	-0.686	-0.129	
14.0	0.0	0.0	0.0	0.0	509.0	-0.699	-0.132	
15.0	0.0	0.0	0.0	0.0	509.0	-0.706	-0.009	
0.0	0.0	0.0	0.0	0.0	508.0	-0.709	0.454	
1.0	0.0	0.0	0.0	0.0	506.0	-0.712	0.636	
2.0	0.0	0.0	0.0	0.0	502.0	-0.715	0.205	
3.0	0.0	0.0	0.0	0.0	499.0	-0.712	-0.126	
4.0	0.0	0.0	0.0	0.0	498.0	-0.719	-0.188	
5.0	0.0	0.0	0.0	0.0	496.0	-0.725	-0.188	
6.0	0.0	0.0	0.0	0.0	495.0	-0.725	-0.126	
7.0	0.0	0.0	0.0	0.0	494.0	-0.735	-0.152	
8.0	0.0	0.0	0.0	0.0	493.0	-0.738	-0.103	
9.0	0.0	0.0	0.0	0.0	493.0	-0.744	-0.105	
10.0	0.0	0.0	0.0	0.0	492.0	-0.744	-0.059	
11.0	0.0	0.0	0.0	0.0	492.0	-0.751	-0.076	
12.0	0.0	0.0	0.0	0.0	491.0	-0.754	-0.062	
13.0	0.0	0.0	0.0	0.0	489.0	-0.757	-0.091	
14.0	0.0	0.0	0.0	0.0	487.0	-0.761	0.015	
15.0	0.0	0.0	0.0	0.0	487.0	-0.764	-0.006	
0.0	0.0	0.0	0.0	0.0	487.0	-0.767	-0.018	
1.0	0.0	0.0	0.0	0.0	487.0	-0.773	0.012	
2.0	0.0	0.0	0.0	0.0	486.0	-0.78	0.026	
3.0	0.0	0.0	0.0	0.0	487.0	-0.79	0.026	
4.0	0.0	0.0	0.0	0.0	487.0	-0.799	0.038	
5.0	0.0	0.0	0.0	0.0	487.0	-0.806	-0.023	
6.0	0.0	0.0	0.0	0.0	489.0	-0.812	0.009	
7.0	0.0	0.0	0.0	0.0	489.0	-0.825	0.062	
8.0	0.0	0.0	0.0	0.0	492.0	-0.841	0.059	
9.0	0.0	0.0	0.0	0.0	495.0	-0.86	-0.003	
10.0	0.0	0.0	0.0	0.0	502.0	-0.877	0.018	
11.0	0.0	0.0	0.0	0.0	511.0	-0.893	-0.021	
12.0	0.0	0.0	0.0	0.0	521.0	-0.912	-0.023	
13.0	0.0	0.0	0.0	0.0	530.0	-0.935	-0.023	
14.0	0.0	0.0	0.0	0.0	541.0	-0.957	0.012	
15.0	0.0	0.0	0.0	0.0	553.0	-0.976	-0.029	
0.0	0.0	0.0	0.0	0.0	564.0	-0.999	-0.012	
1.0	0.0	0.0	0.0	0.0	573.0	-1.022	-0.032	
2.0	0.0	0.0	0.0	0.0	579.0	-1.041	-0.015	
3.0	0.0	0.0	0.0	0.0	585.0	-1.067	-0.021	
4.0	0.0	0.0	0.0	0.0	588.0	-1.083	-0.029	
5.0	0.0	0.0	0.0	0.0	588.0	-1.105	-0.035	
6.0	0.0	0.0	0.0	0.0	584.0	-1.118	-0.018	
7.0	0.0	0.0	0.0	0.0	582.0	-1.134	-0.056	
8.0	0.0	0.0	0.0	0.0	579.0	-1.154	0.009	
9.0	0.0	0.0	0.0	0.0	576.0	-1.16	-0.006	
10.0	0.0	0.0	0.0	0.0	571.0	-1.183	0.018	
11.0	0.0	0.0	0.0	0.0	567.0	-1.189	0.047	
12.0	0.0	0.0	0.0	0.0	563.0	-1.199	0.07	
13.0	0.0	0.0	0.0	0.0	559.0	-1.208	0.035	
14.0	0.0	0.0	0.0	0.0	558.0	-1.215	0.085	
15.0	0.0	0.0	0.0	0.0	556.0	-1.228	0.064	
0.0	0.0	0.0	0.0	0.0	555.0	-1.231	0.079	
1.0	0.0	0.0	0.0	0.0	554.0	-1.241	0.018	
2.0	0.0	0.0	0.0	0.0	552.0	-1.247	0.035	
3.0	0.0	0.0	0.0	0.0	552.0	-1.254	0.056	
4.0	0.0	0.0	0.0	0.0	551.0	-1.257	0.044	
5.0	0.0	0.0	0.0	0.0	549.0	-1.263	0.006	
6.0	0.0	0.0	0.0	0.0	546.0	-1.273	0.082	
7.0	0.0	0.0	0.0	0.0	542.0	-1.27	0.006	
8.0	0.0	0.0	0.0	0.0	537.0	-1.279	0.035	
9.0	0.0	0.0	0.0	0.0	534.0	-1.276	-0.053	
10.0	0.0	0.0	0.0	0.0	529.0	-1.279	0.012	
11.0	0.0	0.0	0.0	0.0	526.0	-1.276	-0.041	
12.0	0.0	0.0	0.0	0.0	522.0	-1.283	0.029	
13.0	0.0	0.0	0.0	0.0	519.0	-1.273	-0.032	
14.0	0.0	0.0	0.0	0.0	515.0	-1.276	0.009	
15.0	0.0	0.0	0.0	0.0	512.0	-1.276	0.006	
0.0	0.0	0.0	0.0	0.0	511.0	-1.267	0.012	
1.0	0.0	0.0	0.0	0.0	508.0	-1.27	-0.021	
2.0	0.0	0.0	0.0	0.0	508.0	-1.26	-0.026	
3.0	0.0	0.0	0.0	0.0	508.0	-1.257	-0.006	
4.0	0.0	0.0	0.0	0.0	510.0	-1.254	0.035	
5.0	0.0	0.0	0.0	0.0	510.0	-1.247	0.003	
6.0	0.0	0.0	0.0	0.0	511.0	-1.247	-0.006	
7.0	0.0	0.0	0.0	0.0	511.0	-1.241	0.021	
8.0	0.0	0.0	0.0	0.0	508.0	-1.237	0.021	
9.0	0.0	0.0	0.0	0.0	507.0	-1.228	0.003	
10.0	0.0	0.0	0.0	0.0	505.0	-1.228	0.064	
11.0	0.0	0.0	0.0	0.0	503.0	-1.215	0.059	
12.0	0.0	0.0	0.0	0.0	500.0	-1.212	0.12	
13.0	0.0	0.0	0.0	0.0	499.0	-1.205	0.1	
14.0	0.0	0.0	0.0	0.0	498.0	-1.199	0.158	
15.0	0.0	0.0	0.0	0.0	496.0	-1.192	0.091	
0.0	0.0	0.0	0.0	0.0	493.0	-1.183	0.117	
1.0	0.0	0.0	0.0	0.0	492.0	-1.179	-0.018	
2.0	0.0	0.0	0.0	0.0	491.0	-1.167	-0.085	
3.0	0.0	0.0	0.0	0.0	489.0	-1.163	-0.132	
4.0	0.0	0.0	0.0	0.0	487.0	-1.15	-0.146	
5.0	0.0	0.0	0.0	0.0	486.0	-1.144	-0.144	
6.0	0.0	0.0	0.0	0.0	484.0	-1.134	-0.114	
7.0	0.0	0.0	0.0	0.0	483.0	-1.121	-0.173	
8.0	0.0	0.0	0.0	0.0	483.0	-1.112	-0.193	
9.0	0.0	0.0	0.0	0.0	482.0	-1.096	0.0	
10.0	0.0	0.0	0.0	0.0	480.0	-1.089	0.393	
11.0	0.0	0.0	0.0	0.0	479.0	-1.073	0.319	
12.0	0.0	0.0	0.0	0.0	480.0	-1.067	-0.211	
13.0	0.0	0.0	0.0	0.0	480.0	-1.054	-0.396	
14.0	0.0	0.0	0.0	0.0	479.0	-1.047	-0.407	
15.0	0.0	0.0	0.0	0.0	479.0	-1.034	-0.325	
0.0	0.0	0.0	0.0	0.0	480.0	-1.031	-0.308	
1.0	0.0	0.0	0.0	0.0	480.0	-1.018	-0.278	
2.0	0.0	0.0	0.0	0.0	479.0	-1.009	-0.223	
3.0	0.0	0.0	0.0	0.0	478.0	-0.993	-0.199	
4.0	0.0	0.0	0.0	0.0	476.0	-0.976	-0.158	
5.0	0.0	0.0	0.0	0.0	474.0	-0.96	-0.149	
6.0	0.0	0.0	0.0	0.0	474.0	-0.944	-0.135	
7.0	0.0	0.0	0.0	0.0	474.0	-0.928	-0.108	
8.0	0.0	0.0	0.0	0.0	473.0	-0.906	-0.053	
9.0	0.0	0.0	0.0	0.0	472.0	-0.883	-0.076	
10.0	0.0	0.0	0.0	0.0	471.0	-0.857	-0.012	
11.0	0.0	0.0	0.0	0.0	471.0	-0.828	-0.041	
12.0	0.0	0.0	0.0	0.0	469.0	-0.799	0.0	
13.0	0.0	0.0	0.0	0.0	468.0	-0.767	0.009	
14.0	0.0	0.0	0.0	0.0	466.0	-0.732	0.07	
15.0	0.0	0.0	0.0	0.0	466.0	-0.693	0.05	
0.0	0.0	0.0	0.0	0.0	467.0	-0.654	0.07	
1.0	0.0	0.0	0.0	0.0	466.0	-0.609	0.082	
2.0	0.0	0.0	0.0	0.0	467.0	-0.57	0.117	
3.0	0.0	0.0	0.0	0.0	470.0	-0.529	0.047	
4.0	0.0	0.0	0.0	0.0	475.0	-0.487	0.103	
5.0	0.0	0.0	0.0	0.0	481.0	-0.442	0.064	
6.0	0.0	0.0	0.0	0.0	489.0	-0.396	0.038	
7.0	0.0	0.0	0.0	0.0	498.0	-0.351	0.053	
8.0	0.0	0.0	0.0	0.0	508.0	-0.303	0.044	
9.0	0.0	0.0	0.0	0.0	518.0	-0.258	0.006	
10.0	0.0	0.0	0.0	0.0	528.0	-0.206	0.032	
11.0	0.0	0.0	0.0	0.0	536.0	-0.158	0.053	
12.0	0.0	0.0	0.0	0.0	543.0	-0.11	0.067	
13.0	0.0	0.0	0.0	0.0	548.0	-0.061	0.035	
14.0	0.0	0.0	0.0	0.0	553.0	-0.013	0.064	
15.0	0.0	0.0	0.0	0.0	557.0	0.032	0.044	
0.0	0.0	0.0	0.0	0.0	559.0	0.081	0.07	
1.0	0.0	0.0	0.0	0.0	561.0	0.126	0.088	
2.0	0.0	0.0	0.0	0.0	563.0	0.168	0.12	
3.0	0.0	0.0	0.0	0.0	563.0	0.213	0.091	
4.0	0.0	0.0	0.0	0.0	563.0	0.255	0.126	
5.0	0.0	0.0	0.0	0.0	560.0	0.296	0.105	
6.0	0.0	0.0	0.0	0.0	559.0	0.332	0.149	
7.0	0.0	0.0	0.0	0.0	556.0	0.371	0.129	
8.0	0.0	0.0	0.0	0.0	557.0	0.406	0.158	
9.0	0.0	0.0	0.0	0.0	558.0	0.438	0.114	
10.0	0.0	0.0	0.0	0.0	558.0	0.474	0.135	
11.0	0.0	0.0	0.0	0.0	555.0	0.506	0.091	
12.0	0.0	0.0	0.0	0.0	553.0	0.538	0.085	
13.0	0.0	0.0	0.0	0.0	551.0	0.567	0.07	
14.0	0.0	0.0	0.0	0.0	548.0	0.593	0.047	
15.0	0.0	0.0	0.0	0.0	544.0	0.619	0.035	
0.0	0.0	0.0	0.0	0.0	541.0	0.645	0.05	
1.0	0.0	0.0	0.0	0.0	537.0	0.667	-0.006	
2.0	0.0	0.0	0.0	0.0	534.0	0.69	0.021	
3.0	0.0	0.0	0.0	0.0	532.0	0.709	-0.015	
4.0	0.0	0.0	0.0	0.0	531.0	0.725	-0.003	
5.0	0.0	0.0	0.0	0.0	531.0	0.741	-0.021	
6.0	0.0	0.0	0.0	0.0	532.0	0.757	0.035	
7.0	0.0	0.0	0.0	0.0	533.0	0.773	0.0	
8.0	0.0	0.0	0.0	0.0	535.0	0.786	0.038	
9.0	0.0	0.0	0.0	0.0	539.0	0.799	0.021	
10.0	0.0	0.0	0.0	0.0	545.0	0.815	0.018	
11.0	0.0	0.0	0.0	0.0	552.0	0.828	-0.015	
12.0	0.0	0.0	0.0	0.0	563.0	0.841	0.053	
13.0	0.0	0.0	0.0	0.0	578.0	0.854	0.023	
14.0	0.0	0.0	0.0	0.0	595.0	0.867	0.041	
15.0	0.0	0.0	0.0	0.0	619.0	0.88	0.038	
0.0	0.0	0.0	0.0	0.0	645.0	0.896	0.07	
1.0	0.0	0.0	0.0	0.0	675.0	0.909	0.044	
2.0	0.0	0.0	0.0	0.0	705.0	0.922	0.059	
3.0	0.0	0.0	0.0	0.0	735.0	0.935	0.059	
4.0	0.0	0.0	0.0	0.0	765.0	0.951	0.117	
5.0	0.0	0.0	0.0	0.0	788.0	0.964	0.091	
6.0	0.0	0.0	0.0	0.0	805.0	0.973	0.126	
7.0	0.0	0.0	0.0	0.0	816.0	0.983	0.19	
8.0	0.0	0.0	0.0	0.0	820.0	0.996	0.176	
9.0	0.0	0.0	0.0	0.0	817.0	1.009	0.079	
10.0	0.0	0.0	0.0	0.0	809.0	1.022	0.05	
11.0	0.0	0.0	0.0	0.0	797.0	1.031	-0.059	
12.0	0.0	0.0	0.0	0.0	784.0	1.044	-0.047	
13.0	0.0	0.0	0.0	0.0	768.0	1.057	-0.067	
14.0	0.0	0.0	0.0	0.0	749.0	1.07	-0.023	
15.0	0.0	0.0	0.0	0.0	731.0	1.08	-0.079	
0.0	0.0	0.0	0.0	0.0	715.0	1.092	-0.056	
1.0	0.0	0.0	0.0	0.0	699.0	1.102	-0.003	
2.0	0.0	0.0	0.0	0.0	685.0	1.115	0.442	
3.0	0.0	0.0	0.0	0.0	672.0	1.125	0.671	
4.0	0.0	0.0	0.0	0.0	661.0	1.131	0.316	
5.0	0.0	0.0	0.0	0.0	652.0	1.141	-0.012	
6.0	0.0	0.0	0.0	0.0	645.0	1.15	-0.105	
7.0	0.0	0.0	0.0	0.0	637.0	1.157	-0.182	
8.0	0.0	0.0	0.0	0.0	633.0	1.163	-0.164	
9.0	0.0	0.0	0.0	0.0	630.0	1.17	-0.146	
10.0	0.0	0.0	0.0	0.0	630.0	1.176	-0.117	
11.0	0.0	0.0	0.0	0.0	628.0	1.183	-0.105	
12.0	0.0	0.0	0.0	0.0	630.0	1.186	-0.073	
13.0	0.0	0.0	0.0	0.0	630.0	1.189	-0.064	
14.0	0.0	0.0	0.0	0.0	628.0	1.186	-0.018	
15.0	0.0	0.0	0.0	0.0	628.0	1.179	-0.053	
0.0	0.0	0.0	0.0	0.0	629.0	1.176	-0.006	
1.0	0.0	0.0	0.0	0.0	628.0	1.17	-0.047	
2.0	0.0	0.0	0.0	0.0	624.0	1.167	0.038	
3.0	0.0	0.0	0.0	0.0	620.0	1.16	-0.023	
4.0	0.0	0.0	0.0	0.0	615.0	1.154	0.012	
5.0	0.0	0.0	0.0	0.0	608.0	1.144	0.003	
6.0	0.0	0.0	0.0	0.0	602.0	1.134	0.044	
7.0	0.0	0.0	0.0	0.0	594.0	1.121	0.021	
8.0	0.0	0.0	0.0	0.0	587.0	1.112	0.067	
9.0	0.0	0.0	0.0	0.0	579.0	1.096	0.003	
10.0	0.0	0.0	0.0	0.0	573.0	1.08	0.07	
11.0	0.0	0.0	0.0	0.0	568.0	1.06	0.0	
12.0	0.0	0.0	0.0	0.0	563.0	1.041	0.032	
13.0	0.0	0.0	0.0	0.0	562.0	1.018	-0.032	
14.0	0.0	0.0	0.0	0.0	564.0	0.999	0.0	
15.0	0.0	0.0	0.0	0.0	568.0	0.976	-0.067	
0.0	0.0	0.0	0.0	0.0	574.0	0.954	-0.073	
1.0	0.0	0.0	0.0	0.0	578.0	0.931	-0.067	
2.0	0.0	0.0	0.0	0.0	582.0	0.909	-0.029	
3.0	0.0	0.0	0.0	0.0	585.0	0.889	-0.056	
4.0	0.0	0.0	0.0	0.0	588.0	0.867	-0.023	
5.0	0.0	0.0	0.0	0.0	592.0	0.844	-0.038	
6.0	0.0	0.0	0.0	0.0	595.0	0.822	-0.012	
7.0	0.0	0.0	0.0	0.0	598.0	0.799	-0.035	
8.0	0.0	0.0	0.0	0.0	600.0	0.777	-0.003	
9.0	0.0	0.0	0.0	0.0	600.0	0.757	-0.032	
10.0	0.0	0.0	0.0	0.0	601.0	0.735	-0.003	
11.0	0.0	0.0	0.0	0.0	601.0	0.715	-0.023	
12.0	0.0	0.0	0.0	0.0	601.0	0.696	0.015	
13.0	0.0	0.0	0.0	0.0	601.0	0.677	0.0	
14.0	0.0	0.0	0.0	0.0	600.0	0.661	0.053	
15.0	0.0	0.0	0.0	0.0	599.0	0.641	0.012	
0.0	0.0	0.0	0.0	0.0	598.0	0.628	0.021	
1.0	0.0	0.0	0.0	0.0	598.0	0.612	-0.003	
2.0	0.0	0.0	0.0	0.0	598.0	0.596	0.026	
3.0	0.0	0.0	0.0	0.0	595.0	0.58	-0.029	
4.0	0.0	0.0	0.0	0.0	592.0	0.564	0.015	
5.0	0.0	0.0	0.0	0.0	591.0	0.548	-0.015	
6.0	0.0	0.0	0.0	0.0	591.0	0.529	-0.018	
7.0	0.0	0.0	0.0	0.0	591.0	0.509	-0.053	
8.0	0.0	0.0	0.0	0.0	593.0	0.493	-0.012	
9.0	0.0	0.0	0.0	0.0	595.0	0.477	-0.067	
10.0	0.0	0.0	0.0	0.0	598.0	0.458	-0.035	
11.0	0.0	0.0	0.0	0.0	602.0	0.442	-0.07	
12.0	0.0	0.0	0.0	0.0	606.0	0.422	-0.038	
13.0	0.0	0.0	0.0	0.0	612.0	0.406	-0.1	
14.0	0.0	0.0	0.0	0.0	615.0	0.387	-0.032	
15.0	0.0	0.0	0.0	0.0	620.0	0.371	-0.067	
0.0	0.0	0.0	0.0	0.0	624.0	0.354	-0.038	
1.0	0.0	0.0	0.0	0.0	628.0	0.335	-0.05	
2.0	0.0	0.0	0.0	0.0	632.0	0.322	-0.009	
3.0	0.0	0.0	0.0	0.0	633.0	0.306	-0.05	
4.0	0.0	0.0	0.0	0.0	636.0	0.29	0.0	
5.0	0.0	0.0	0.0	0.0	637.0	0.274	0.035	
6.0	0.0	0.0	0.0	0.0	637.0	0.258	0.044	
7.0	0.0	0.0	0.0	0.0	637.0	0.245	0.062	
8.0	0.0	0.0	0.0	0.0	635.0	0.232	0.123	
9.0	0.0	0.0	0.0	0.0	633.0	0.219	0.082	
10.0	0.0	0.0	0.0	0.0	630.0	0.206	0.064	
11.0	0.0	0.0	0.0	0.0	626.0	0.193	-0.047	
12.0	0.0	0.0	0.0	0.0	622.0	0.18	-0.1	
13.0	0.0	0.0	0.0	0.0	618.0	0.171	-0.173	
14.0	0.0	0.0	0.0	0.0	614.0	0.161	-0.138	
15.0	0.0	0.0	0.0	0.0	611.0	0.151	-0.132	
0.0	0.0	0.0	0.0	0.0	608.0	0.145	-0.103	
1.0	0.0	0.0	0.0	0.0	605.0	0.139	-0.138	
2.0	0.0	0.0	0.0	0.0	601.0	0.132	-0.126	
3.0	0.0	0.0	0.0	0.0	597.0	0.126	0.105	
4.0	0.0	0.0	0.0	0.0	591.0	0.122	0.601	
5.0	0.0	0.0	0.0	0.0	583.0	0.119	0.554	
6.0	0.0	0.0	0.0	0.0	574.0	0.113	0.059	
7.0	0.0	0.0	0.0	0.0	564.0	0.103	-0.161	
8.0	0.0	0.0	0.0	0.0	555.0	0.093	-0.176	
9.0	0.0	0.0	0.0	0.0	542.0	0.084	-0.161	
10.0	0.0	0.0	0.0	0.0	527.0	0.074	-0.114	
11.0	0.0	0.0	0.0	0.0	515.0	0.061	-0.114	
12.0	0.0	0.0	0.0	0.0	503.0	0.048	-0.1	
13.0	0.0	0.0	0.0	0.0	491.0	0.039	-0.085	
14.0	0.0	0.0	0.0	0.0	480.0	0.026	-0.023	
15.0	0.0	0.0	0.0	0.0	469.0	0.016	-0.059	
0.0	0.0	0.0	0.0	0.0	460.0	0.003	-0.003	
1.0	0.0	0.0	0.0	0.0	452.0	-0.01	-0.038	
2.0	0.0	0.0	0.0	0.0	445.0	-0.026	-0.021	
3.0	0.0	0.0	0.0	0.0	439.0	-0.039	-0.035	
4.0	0.0	0.0	0.0	0.0	433.0	-0.052	0.029	
5.0	0.0	0.0	0.0	0.0	430.0	-0.064	-0.015	
6.0	0.0	0.0	0.0	0.0	428.0	-0.081	0.023	
7.0	0.0	0.0	0.0	0.0	425.0	-0.09	0.012	
8.0	0.0	0.0	0.0	0.0	422.0	-0.103	0.053	
9.0	0.0	0.0	0.0	0.0	418.0	-0.113	0.029	
10.0	0.0	0.0	0.0	0.0	415.0	-0.122	0.053	
11.0	0.0	0.0	0.0	0.0	415.0	-0.132	0.023	
12.0	0.0	0.0	0.0	0.0	414.0	-0.145	0.067	
13.0	0.0	0.0	0.0	0.0	413.0	-0.151	0.0	
14.0	0.0	0.0	0.0	0.0	415.0	-0.161	0.041	
15.0	0.0	0.0	0.0	0.0	417.0	-0.171	0.003	
0.0	0.0	0.0	0.0	0.0	420.0	-0.18	-0.003	
1.0	0.0	0.0	0.0	0.0	423.0	-0.187	-0.035	
2.0	0.0	0.0	0.0	0.0	430.0	-0.197	0.0	
3.0	0.0	0.0	0.0	0.0	439.0	-0.203	-0.038	
4.0	0.0	0.0	0.0	0.0	446.0	-0.213	-0.032	
5.0	0.0	0.0	0.0	0.0	453.0	-0.219	-0.038	
6.0	0.0	0.0	0.0	0.0	462.0	-0.226	-0.006	
7.0	0.0	0.0	0.0	0.0	471.0	-0.235	-0.064	
8.0	0.0	0.0	0.0	0.0	479.0	-0.245	-0.029	
9.0	0.0	0.0	0.0	0.0	486.0	-0.248	-0.073	
10.0	0.0	0.0	0.0	0.0	494.0	-0.258	-0.003	
11.0	0.0	0.0	0.0	0.0	499.0	-0.264	-0.062	
12.0	0.0	0.0	0.0	0.0	507.0	-0.271	0.012	
13.0	0.0	0.0	0.0	0.0	514.0	-0.274	-0.035	
14.0	0.0	0.0	0.0	0.0	519.0	-0.28	0.041	
15.0	0.0	0.0	0.0	0.0	522.0	-0.284	-0.021	
0.0	0.0	0.0	0.0	0.0	526.0	-0.287	0.032	
1.0	0.0	0.0	0.0	0.0	526.0	-0.29	0.003	
2.0	0.0	0.0	0.0	0.0	527.0	-0.293	0.047	
3.0	0.0	0.0	0.0	0.0	526.0	-0.3	-0.015	
4.0	0.0	0.0	0.0	0.0	524.0	-0.306	0.041	
5.0	0.0	0.0	0.0	0.0	519.0	-0.313	-0.006	
6.0	0.0	0.0	0.0	0.0	514.0	-0.319	0.0	
7.0	0.0	0.0	0.0	0.0	505.0	-0.325	-0.021	
8.0	0.0	0.0	0.0	0.0	499.0	-0.335	-0.006	
9.0	0.0	0.0	0.0	0.0	490.0	-0.345	-0.05	
10.0	0.0	0.0	0.0	0.0	480.0	-0.361	-0.026	
11.0	0.0	0.0	0.0	0.0	472.0	-0.383	-0.059	
12.0	0.0	0.0	0.0	0.0	465.0	-0.409	-0.006	
13.0	0.0	0.0	0.0	0.0	461.0	-0.438	-0.044	
14.0	0.0	0.0	0.0	0.0	458.0	-0.471	-0.012	
15.0	0.0	0.0	0.0	0.0	455.0	-0.506	-0.067	
0.0	0.0	0.0	0.0	0.0	452.0	-0.538	-0.015	
1.0	0.0	0.0	0.0	0.0	449.0	-0.57	-0.047	
2.0	0.0	0.0	0.0	0.0	444.0	-0.603	-0.012	
3.0	0.0	0.0	0.0	0.0	440.0	-0.632	-0.07	
4.0	0.0	0.0	0.0	0.0	436.0	-0.661	-0.026	
5.0	0.0	0.0	0.0	0.0	431.0	-0.686	-0.035	
6.0	0.0	0.0	0.0	0.0	427.0	-0.715	0.015	
7.0	0.0	0.0	0.0	0.0	423.0	-0.738	-0.029	
8.0	0.0	0.0	0.0	0.0	421.0	-0.764	-0.003	
9.0	0.0	0.0	0.0	0.0	418.0	-0.786	-0.038	
10.0	0.0	0.0	0.0	0.0	416.0	-0.809	0.021	
11.0	0.0	0.0	0.0	0.0	415.0	-0.831	-0.026	
12.0	0.0	0.0	0.0	0.0	414.0	-0.851	0.044	
13.0	0.0	0.0	0.0	0.0	411.0	-0.87	0.012	
14.0	0.0	0.0	0.0	0.0	408.0	-0.889	0.059	
15.0	0.0	0.0	0.0	0.0	405.0	-0.912	0.018	
0.0	0.0	0.0	0.0	0.0	402.0	-0.931	0.082	
1.0	0.0	0.0	0.0	0.0	397.0	-0.954	0.07	
2.0	0.0	0.0	0.0	0.0	391.0	-0.97	0.12	
3.0	0.0	0.0	0.0	0.0	387.0	-0.983	0.152	
4.0	0.0	0.0	0.0	0.0	383.0	-0.999	0.138	
5.0	0.0	0.0	0.0	0.0	378.0	-1.009	0.082	
6.0	0.0	0.0	0.0	0.0	374.0	-1.018	0.067	
7.0	0.0	0.0	0.0	0.0	369.0	-1.025	-0.085	
8.0	0.0	0.0	0.0	0.0	363.0	-1.034	-0.105	
9.0	0.0	0.0	0.0	0.0	357.0	-1.041	-0.138	
10.0	0.0	0.0	0.0	0.0	349.0	-1.044	-0.073	
11.0	0.0	0.0	0.0	0.0	339.0	-1.054	-0.152	
12.0	0.0	0.0	0.0	0.0	325.0	-1.057	-0.056	
13.0	0.0	0.0	0.0	0.0	306.0	-1.063	-0.129	
14.0	0.0	0.0	0.0	0.0	285.0	-1.067	0.056	
15.0	0.0	0.0	0.0	0.0	262.0	-1.07	0.454	
0.0	0.0	0.0	0.0	0.0	237.0	-1.076	0.662	
1.0	0.0	0.0	0.0	0.0	214.0	-1.08	0.091	
2.0	0.0	0.0	0.0	0.0	192.0	-1.086	-0.129	
3.0	0.0	0.0	0.0	0.0	175.0	-1.089	-0.267	
4.0	0.0	0.0	0.0	0.0	165.0	-1.092	-0.152	
5.0	0.0	0.0	0.0	0.0	160.0	-1.096	-0.132	
6.0	0.0	0.0	0.0	0.0	163.0	-1.096	-0.094	
7.0	0.0	0.0	0.0	0.0	171.0	-1.096	-0.138	
8.0	0.0	0.0	0.0	0.0	184.0	-1.099	-0.064	
9.0	0.0	0.0	0.0	0.0	201.0	-1.096	-0.105	
10.0	0.0	0.0	0.0	0.0	224.0	-1.096	-0.047	
11.0	0.0	0.0	0.0	0.0	249.0	-1.099	-0.091	
12.0	0.0	0.0	0.0	0.0	276.0	-1.099	-0.023	
13.0	0.0	0.0	0.0	0.0	303.0	-1.099	-0.064	
14.0	0.0	0.0	0.0	0.0	327.0	-1.102	0.012	
15.0	0.0	0.0	0.0	0.0	353.0	-1.102	-0.038	
0.0	0.0	0.0	0.0	0.0	377.0	-1.102	0.021	
1.0	0.0	0.0	0.0	0.0	401.0	-1.102	-0.041	
2.0	0.0	0.0	0.0	0.0	422.0	-1.099	0.023	
3.0	0.0	0.0	0.0	0.0	440.0	-1.099	-0.015	
4.0	0.0	0.0	0.0	0.0	455.0	-1.096	0.029	
5.0	0.0	0.0	0.0	0.0	467.0	-1.096	-0.032	
6.0	0.0	0.0	0.0	0.0	476.0	-1.089	0.047	
7.0	0.0	0.0	0.0	0.0	483.0	-1.089	-0.006	
8.0	0.0	0.0	0.0	0.0	489.0	-1.089	0.026	
9.0	0.0	0.0	0.0	0.0	495.0	-1.086	-0.003	
10.0	0.0	0.0	0.0	0.0	500.0	-1.086	0.021	
11.0	0.0	0.0	0.0	0.0	506.0	-1.08	-0.015	
12.0	0.0	0.0	0.0	0.0	512.0	-1.073	0.021	
13.0	0.0	0.0	0.0	0.0	517.0	-1.07	-0.026	
14.0	0.0	0.0	0.0	0.0	524.0	-1.06	0.018	
15.0	0.0	0.0	0.0	0.0	531.0	-1.057	-0.05	
0.0	0.0	0.0	0.0	0.0	536.0	-1.044	0.006	
1.0	0.0	0.0	0.0	0.0	539.0	-1.041	-0.047	
2.0	0.0	0.0	0.0	0.0	542.0	-1.031	-0.018	
3.0	0.0	0.0	0.0	0.0	544.0	-1.025	-0.05	
4.0	0.0	0.0	0.0	0.0	545.0	-1.018	-0.009	
5.0	0.0	0.0	0.0	0.0	546.0	-1.009	-0.07	
6.0	0.0	0.0	0.0	0.0	546.0	-0.999	-0.026	
7.0	0.0	0.0	0.0	0.0	543.0	-0.989	-0.059	
8.0	0.0	0.0	0.0	0.0	541.0	-0.983	0.026	
9.0	0.0	0.0	0.0	0.0	539.0	-0.97	-0.003	
10.0	0.0	0.0	0.0	0.0	539.0	-0.957	0.035	
11.0	0.0	0.0	0.0	0.0	538.0	-0.951	0.006	
12.0	0.0	0.0	0.0	0.0	538.0	-0.941	0.073	
13.0	0.0	0.0	0.0	0.0	539.0	-0.928	0.029	
14.0	0.0	0.0	0.0	0.0	542.0	-0.918	0.073	
15.0	0.0	0.0	0.0	0.0	543.0	-0.909	0.015	
0.0	0.0	0.0	0.0	0.0	546.0	-0.902	0.056	
1.0	0.0	0.0	0.0	0.0	549.0	-0.896	0.003	
2.0	0.0	0.0	0.0	0.0	555.0	-0.886	0.035	
3.0	0.0	0.0	0.0	0.0	559.0	-0.88	-0.032	
4.0	0.0	0.0	0.0	0.0	562.0	-0.877	0.003	
5.0	0.0	0.0	0.0	0.0	565.0	-0.873	-0.023	
6.0	0.0	0.0	0.0	0.0	567.0	-0.867	0.023	
7.0	0.0	0.0	0.0	0.0	568.0	-0.864	-0.026	
8.0	0.0	0.0	0.0	0.0	571.0	-0.864	0.0	
9.0	0.0	0.0	0.0	0.0	573.0	-0.864	-0.044	
10.0	0.0	0.0	0.0	0.0	575.0	-0.864	0.009	
11.0	0.0	0.0	0.0	0.0	576.0	-0.854	-0.05	
12.0	0.0	0.0	0.0	0.0	576.0	-0.851	0.0	
13.0	0.0	0.0	0.0	0.0	575.0	-0.844	-0.035	
14.0	0.0	0.0	0.0	0.0	573.0	-0.828	-0.012	
15.0	0.0	0.0	0.0	0.0	570.0	-0.819	-0.021	
0.0	0.0	0.0	0.0	0.0	567.0	-0.799	-0.012	
1.0	0.0	0.0	0.0	0.0	563.0	-0.78	-0.05	
2.0	0.0	0.0	0.0	0.0	559.0	-0.757	0.015	
3.0	0.0	0.0	0.0	0.0	554.0	-0.728	-0.026	
4.0	0.0	0.0	0.0	0.0	548.0	-0.699	0.021	
5.0	0.0	0.0	0.0	0.0	542.0	-0.667	-0.041	
6.0	0.0	0.0	0.0	0.0	539.0	-0.632	-0.012	
7.0	0.0	0.0	0.0	0.0	536.0	-0.593	-0.047	
8.0	0.0	0.0	0.0	0.0	531.0	-0.554	0.032	
9.0	0.0	0.0	0.0	0.0	530.0	-0.519	-0.026	
10.0	0.0	0.0	0.0	0.0	529.0	-0.477	0.018	
11.0	0.0	0.0	0.0	0.0	529.0	-0.438	-0.088	
12.0	0.0	0.0	0.0	0.0	530.0	-0.4	0.012	
13.0	0.0	0.0	0.0	0.0	529.0	-0.364	-0.035	
14.0	0.0	0.0	0.0	0.0	531.0	-0.325	0.006	
15.0	0.0	0.0	0.0	0.0	534.0	-0.29	-0.056	
0.0	0.0	0.0	0.0	0.0	537.0	-0.251	0.006	
1.0	0.0	0.0	0.0	0.0	540.0	-0.216	-0.056	
2.0	0.0	0.0	0.0	0.0	544.0	-0.184	0.029	
3.0	0.0	0.0	0.0	0.0	550.0	-0.145	-0.023	
4.0	0.0	0.0	0.0	0.0	555.0	-0.11	-0.018	
5.0	0.0	0.0	0.0	0.0	561.0	-0.074	-0.029	
6.0	0.0	0.0	0.0	0.0	566.0	-0.039	0.018	
7.0	0.0	0.0	0.0	0.0	569.0	-0.003	-0.023	
8.0	0.0	0.0	0.0	0.0	571.0	0.032	0.023	
9.0	0.0	0.0	0.0	0.0	574.0	0.068	-0.032	
10.0	0.0	0.0	0.0	0.0	576.0	0.106	0.038	
11.0	0.0	0.0	0.0	0.0	577.0	0.142	0.021	
12.0	0.0	0.0	0.0	0.0	578.0	0.177	0.079	
13.0	0.0	0.0	0.0	0.0	579.0	0.213	0.073	
14.0	0.0	0.0	0.0	0.0	581.0	0.245	0.152	
15.0	0.0	0.0	0.0	0.0	583.0	0.28	0.085	
0.0	0.0	0.0	0.0	0.0	583.0	0.313	0.1	
1.0	0.0	0.0	0.0	0.0	584.0	0.345	-0.009	
2.0	0.0	0.0	0.0	0.0	584.0	0.377	-0.056	
3.0	0.0	0.0	0.0	0.0	586.0	0.409	-0.123	
4.0	0.0	0.0	0.0	0.0	588.0	0.442	-0.064	
5.0	0.0	0.0	0.0	0.0	591.0	0.474	-0.126	
6.0	0.0	0.0	0.0	0.0	592.0	0.506	-0.056	
7.0	0.0	0.0	0.0	0.0	595.0	0.538	-0.126	
8.0	0.0	0.0	0.0	0.0	598.0	0.57	-0.059	
9.0	0.0	0.0	0.0	0.0	598.0	0.603	0.22	
10.0	0.0	0.0	0.0	0.0	597.0	0.632	0.636	
11.0	0.0	0.0	0.0	0.0	594.0	0.661	0.407	
12.0	0.0	0.0	0.0	0.0	592.0	0.69	0.006	
13.0	0.0	0.0	0.0	0.0	590.0	0.719	-0.179	
14.0	0.0	0.0	0.0	0.0	587.0	0.744	-0.19	
15.0	0.0	0.0	0.0	0.0	585.0	0.773	-0.161	
0.0	0.0	0.0	0.0	0.0	586.0	0.799	-0.088	
1.0	0.0	0.0	0.0	0.0	588.0	0.828	-0.155	
2.0	0.0	0.0	0.0	0.0	588.0	0.854	-0.123	
3.0	0.0	0.0	0.0	0.0	587.0	0.88	-0.132	
4.0	0.0	0.0	0.0	0.0	585.0	0.906	-0.035	
5.0	0.0	0.0	0.0	0.0	584.0	0.928	-0.073	
6.0	0.0	0.0	0.0	0.0	582.0	0.951	0.009	
7.0	0.0	0.0	0.0	0.0	582.0	0.967	-0.056	
8.0	0.0	0.0	0.0	0.0	582.0	0.989	0.021	
9.0	0.0	0.0	0.0	0.0	582.0	1.009	0.0	
10.0	0.0	0.0	0.0	0.0	581.0	1.028	0.056	
11.0	0.0	0.0	0.0	0.0	579.0	1.047	0.026	
12.0	0.0	0.0	0.0	0.0	575.0	1.063	0.059	
13.0	0.0	0.0	0.0	0.0	572.0	1.08	0.035	
14.0	0.0	0.0	0.0	0.0	568.0	1.096	0.067	
15.0	0.0	0.0	0.0	0.0	564.0	1.112	0.044	
0.0	0.0	0.0	0.0	0.0	561.0	1.128	0.085	
1.0	0.0	0.0	0.0	0.0	561.0	1.141	0.012	
2.0	0.0	0.0	0.0	0.0	562.0	1.154	0.076	
3.0	0.0	0.0	0.0	0.0	565.0	1.16	0.035	
4.0	0.0	0.0	0.0	0.0	568.0	1.173	0.07	
5.0	0.0	0.0	0.0	0.0	572.0	1.179	-0.012	
6.0	0.0	0.0	0.0	0.0	575.0	1.189	0.018	
7.0	0.0	0.0	0.0	0.0	580.0	1.196	-0.059	
8.0	0.0	0.0	0.0	0.0	585.0	1.202	-0.003	
9.0	0.0	0.0	0.0	0.0	590.0	1.208	-0.082	
10.0	0.0	0.0	0.0	0.0	595.0	1.215	-0.029	
11.0	0.0	0.0	0.0	0.0	600.0	1.221	-0.07	
12.0	0.0	0.0	0.0	0.0	604.0	1.228	-0.012	
13.0	0.0	0.0	0.0	0.0	606.0	1.237	-0.1	
14.0	0.0	0.0	0.0	0.0	607.0	1.247	-0.044	
15.0	0.0	0.0	0.0	0.0	608.0	1.257	-0.088	
0.0	0.0	0.0	0.0	0.0	608.0	1.263	-0.041	
1.0	0.0	0.0	0.0	0.0	608.0	1.27	-0.091	
2.0	0.0	0.0	0.0	0.0	607.0	1.276	-0.012	
3.0	0.0	0.0	0.0	0.0	604.0	1.283	-0.047	
4.0	0.0	0.0	0.0	0.0	601.0	1.286	0.006	
5.0	0.0	0.0	0.0	0.0	596.0	1.289	-0.026	
6.0	0.0	0.0	0.0	0.0	593.0	1.289	0.023	
7.0	0.0	0.0	0.0	0.0	591.0	1.286	-0.021	
8.0	0.0	0.0	0.0	0.0	589.0	1.279	0.062	
9.0	0.0	0.0	0.0	0.0	590.0	1.273	0.012	
10.0	0.0	0.0	0.0	0.0	591.0	1.26	0.067	
11.0	0.0	0.0	0.0	0.0	594.0	1.247	0.018	
12.0	0.0	0.0	0.0	0.0	597.0	1.228	0.059	
13.0	0.0	0.0	0.0	0.0	599.0	1.202	0.006	
14.0	0.0	0.0	0.0	0.0	600.0	1.179	0.05	
15.0	0.0	0.0	0.0	0.0	601.0	1.154	0.003	
0.0	0.0	0.0	0.0	0.0	600.0	1.128	0.032	
1.0	0.0	0.0	0.0	0.0	599.0	1.096	-0.047	
2.0	0.0	0.0	0.0	0.0	596.0	1.067	0.032	
3.0	0.0	0.0	0.0	0.0	593.0	1.038	-0.012	
4.0	0.0	0.0	0.0	0.0	590.0	1.005	0.023	
5.0	0.0	0.0	0.0	0.0	587.0	0.973	-0.047	
6.0	0.0	0.0	0.0	0.0	583.0	0.947	0.012	
7.0	0.0	0.0	0.0	0.0	578.0	0.918	-0.038	
8.0	0.0	0.0	0.0	0.0	572.0	0.896	0.026	
9.0	0.0	0.0	0.0	0.0	566.0	0.87	-0.038	
10.0	0.0	0.0	0.0	0.0	557.0	0.848	-0.023	
11.0	0.0	0.0	0.0	0.0	548.0	0.825	-0.041	
12.0	0.0	0.0	0.0	0.0	540.0	0.806	0.0	
13.0	0.0	0.0	0.0	0.0	534.0	0.786	-0.038	
14.0	0.0	0.0	0.0	0.0	525.0	0.77	-0.035	
15.0	0.0	0.0	0.0	0.0	517.0	0.751	-0.038	
0.0	0.0	0.0	0.0	0.0	509.0	0.735	0.053	
1.0	0.0	0.0	0.0	0.0	501.0	0.719	0.023	
2.0	0.0	0.0	0.0	0.0	493.0	0.706	0.091	
3.0	0.0	0.0	0.0	0.0	486.0	0.693	0.088	
4.0	0.0	0.0	0.0	0.0	481.0	0.68	0.1	
5.0	0.0	0.0	0.0	0.0	477.0	0.667	0.009	
6.0	0.0	0.0	0.0	0.0	472.0	0.657	0.021	
7.0	0.0	0.0	0.0	0.0	470.0	0.645	-0.132	
8.0	0.0	0.0	0.0	0.0	470.0	0.632	-0.155	
9.0	0.0	0.0	0.0	0.0	469.0	0.622	-0.161	
10.0	0.0	0.0	0.0	0.0	471.0	0.612	-0.117	
11.0	0.0	0.0	0.0	0.0	473.0	0.599	-0.149	
12.0	0.0	0.0	0.0	0.0	475.0	0.59	-0.097	
13.0	0.0	0.0	0.0	0.0	475.0	0.58	-0.176	
14.0	0.0	0.0	0.0	0.0	476.0	0.567	0.021	
15.0	0.0	0.0	0.0	0.0	475.0	0.554	0.445	
0.0	0.0	0.0	0.0	0.0	473.0	0.535	0.645	
1.0	0.0	0.0	0.0	0.0	472.0	0.519	0.091	
2.0	0.0	0.0	0.0	0.0	467.0	0.5	-0.129	
3.0	0.0	0.0	0.0	0.0	459.0	0.474	-0.234	
4.0	0.0	0.0	0.0	0.0	450.0	0.454	-0.188	
5.0	0.0	0.0	0.0	0.0	438.0	0.429	-0.24	
6.0	0.0	0.0	0.0	0.0	422.0	0.403	-0.111	
7.0	0.0	0.0	0.0	0.0	401.0	0.38	-0.167	
8.0	0.0	0.0	0.0	0.0	380.0	0.354	-0.079	
9.0	0.0	0.0	0.0	0.0	356.0	0.329	-0.12	
10.0	0.0	0.0	0.0	0.0	331.0	0.303	-0.032	
11.0	0.0	0.0	0.0	0.0	307.0	0.274	-0.091	
12.0	0.0	0.0	0.0	0.0	282.0	0.245	-0.035	
13.0	0.0	0.0	0.0	0.0	258.0	0.216	-0.038	
14.0	0.0	0.0	0.0	0.0	239.0	0.18	-0.003	
15.0	0.0	0.0	0.0	0.0	221.0	0.151	-0.053	
0.0	0.0	0.0	0.0	0.0	207.0	0.119	0.018	
1.0	0.0	0.0	0.0	0.0	196.0	0.084	-0.021	
2.0	0.0	0.0	0.0	0.0	187.0	0.048	-0.003	
3.0	0.0	0.0	0.0	0.0	181.0	0.01	-0.026	
4.0	0.0	0.0	0.0	0.0	181.0	-0.026	0.038	
5.0	0.0	0.0	0.0	0.0	186.0	-0.068	-0.012	
6.0	0.0	0.0	0.0	0.0	193.0	-0.103	0.05	
7.0	0.0	0.0	0.0	0.0	206.0	-0.145	-0.009	
8.0	0.0	0.0	0.0	0.0	224.0	-0.184	0.044	
9.0	0.0	0.0	0.0	0.0	245.0	-0.219	-0.038	
10.0	0.0	0.0	0.0	0.0	270.0	-0.255	0.009	
11.0	0.0	0.0	0.0	0.0	300.0	-0.293	-0.038	
12.0	0.0	0.0	0.0	0.0	335.0	-0.335	-0.015	
13.0	0.0	0.0	0.0	0.0	372.0	-0.377	-0.047	
14.0	0.0	0.0	0.0	0.0	410.0	-0.419	0.018	
15.0	0.0	0.0	0.0	0.0	449.0	-0.458	-0.059	
0.0	0.0	0.0	0.0	0.0	489.0	-0.496	-0.038	
1.0	0.0	0.0	0.0	0.0	525.0	-0.535	-0.079	
2.0	0.0	0.0	0.0	0.0	559.0	-0.574	-0.05	
3.0	0.0	0.0	0.0	0.0	590.0	-0.606	-0.097	
4.0	0.0	0.0	0.0	0.0	619.0	-0.641	-0.088	
5.0	0.0	0.0	0.0	0.0	645.0	-0.674	-0.105	
6.0	0.0	0.0	0.0	0.0	668.0	-0.709	-0.053	
7.0	0.0	0.0	0.0	0.0	687.0	-0.738	-0.103	
8.0	0.0	0.0	0.0	0.0	703.0	-0.77	0.003	
9.0	0.0	0.0	0.0	0.0	718.0	-0.802	-0.026	
10.0	0.0	0.0	0.0	0.0	728.0	-0.831	0.026	
11.0	0.0	0.0	0.0	0.0	738.0	-0.867	-0.032	
12.0	0.0	0.0	0.0	0.0	743.0	-0.899	0.05	
13.0	0.0	0.0	0.0	0.0	748.0	-0.935	-0.009	
14.0	0.0	0.0	0.0	0.0	750.0	-0.976	0.035	
15.0	0.0	0.0	0.0	0.0	751.0	-1.009	0.023	
0.0	0.0	0.0	0.0	0.0	750.0	-1.044	0.044	
1.0	0.0	0.0	0.0	0.0	750.0	-1.08	-0.003	
2.0	0.0	0.0	0.0	0.0	745.0	-1.118	0.056	
3.0	0.0	0.0	0.0	0.0	740.0	-1.154	0.015	
4.0	0.0	0.0	0.0	0.0	736.0	-1.186	0.026	
5.0	0.0	0.0	0.0	0.0	732.0	-1.215	0.006	
6.0	0.0	0.0	0.0	0.0	726.0	-1.241	0.035	
7.0	0.0	0.0	0.0	0.0	719.0	-1.263	-0.029	
8.0	0.0	0.0	0.0	0.0	712.0	-1.289	0.015	
9.0	0.0	0.0	0.0	0.0	707.0	-1.308	-0.064	
10.0	0.0	0.0	0.0	0.0	702.0	-1.331	0.029	
11.0	0.0	0.0	0.0	0.0	696.0	-1.347	-0.062	
12.0	0.0	0.0	0.0	0.0	693.0	-1.363	-0.018	
13.0	0.0	0.0	0.0	0.0	690.0	-1.386	-0.035	
14.0	0.0	0.0	0.0	0.0	688.0	-1.395	-0.003	
15.0	0.0	0.0	0.0	0.0	684.0	-1.415	-0.044	
0.0	0.0	0.0	0.0	0.0	681.0	-1.424	-0.015	
1.0	0.0	0.0	0.0	0.0	678.0	-1.437	-0.041	
2.0	0.0	0.0	0.0	0.0	675.0	-1.45	0.006	
3.0	0.0	0.0	0.0	0.0	672.0	-1.45	-0.032	
4.0	0.0	0.0	0.0	0.0	669.0	-1.453	0.041	
5.0	0.0	0.0	0.0	0.0	665.0	-1.453	-0.038	
6.0	0.0	0.0	0.0	0.0	662.0	-1.45	0.032	
7.0	0.0	0.0	0.0	0.0	659.0	-1.434	-0.006	
8.0	0.0	0.0	0.0	0.0	652.0	-1.421	0.029	
9.0	0.0	0.0	0.0	0.0	645.0	-1.405	-0.023	
10.0	0.0	0.0	0.0	0.0	637.0	-1.379	0.064	
11.0	0.0	0.0	0.0	0.0	626.0	-1.36	0.05	
12.0	0.0	0.0	0.0	0.0	610.0	-1.344	0.082	
13.0	0.0	0.0	0.0	0.0	595.0	-1.321	0.091	
14.0	0.0	0.0	0.0	0.0	579.0	-1.302	0.108	
15.0	0.0	0.0	0.0	0.0	565.0	-1.283	0.135	
0.0	0.0	0.0	0.0	0.0	551.0	-1.263	0.234	
1.0	0.0	0.0	0.0	0.0	538.0	-1.241	0.149	
2.0	0.0	0.0	0.0	0.0	524.0	-1.225	0.188	
3.0	0.0	0.0	0.0	0.0	511.0	-1.208	0.029	
4.0	0.0	0.0	0.0	0.0	495.0	-1.183	0.015	
5.0	0.0	0.0	0.0	0.0	475.0	-1.163	-0.079	
6.0	0.0	0.0	0.0	0.0	455.0	-1.147	-0.018	
7.0	0.0	0.0	0.0	0.0	432.0	-1.128	-0.056	
8.0	0.0	0.0	0.0	0.0	410.0	-1.112	-0.012	
9.0	0.0	0.0	0.0	0.0	387.0	-1.089	-0.073	
10.0	0.0	0.0	0.0	0.0	364.0	-1.073	-0.035	
11.0	0.0	0.0	0.0	0.0	342.0	-1.054	0.035	
12.0	0.0	0.0	0.0	0.0	324.0	-1.034	0.539	
13.0	0.0	0.0	0.0	0.0	308.0	-1.018	0.615	
14.0	0.0	0.0	0.0	0.0	295.0	-1.002	0.144	
15.0	0.0	0.0	0.0	0.0	287.0	-0.986	-0.17	
0.0	0.0	0.0	0.0	0.0	281.0	-0.973	-0.158	
1.0	0.0	0.0	0.0	0.0	279.0	-0.96	-0.176	
2.0	0.0	0.0	0.0	0.0	280.0	-0.947	-0.094	
3.0	0.0	0.0	0.0	0.0	280.0	-0.935	-0.117	
4.0	0.0	0.0	0.0	0.0	280.0	-0.922	-0.05	
5.0	0.0	0.0	0.0	0.0	283.0	-0.909	-0.067	
6.0	0.0	0.0	0.0	0.0	284.0	-0.896	-0.006	
7.0	0.0	0.0	0.0	0.0	284.0	-0.883	-0.07	
8.0	0.0	0.0	0.0	0.0	287.0	-0.87	0.0	
9.0	0.0	0.0	0.0	0.0	290.0	-0.857	-0.05	
10.0	0.0	0.0	0.0	0.0	292.0	-0.844	0.032	
11.0	0.0	0.0	0.0	0.0	294.0	-0.828	-0.059	
12.0	0.0	0.0	0.0	0.0	297.0	-0.809	0.059	
13.0	0.0	0.0	0.0	0.0	299.0	-0.786	-0.003	
14.0	0.0	0.0	0.0	0.0	302.0	-0.761	0.059	
15.0	0.0	0.0	0.0	0.0	306.0	-0.728	0.012	
0.0	0.0	0.0	0.0	0.0	313.0	-0.696	0.091	
1.0	0.0	0.0	0.0	0.0	320.0	-0.661	0.018	
2.0	0.0	0.0	0.0	0.0	327.0	-0.625	0.091	
3.0	0.0	0.0	0.0	0.0	335.0	-0.587	0.021	
4.0	0.0	0.0	0.0	0.0	346.0	-0.548	0.067	
5.0	0.0	0.0	0.0	0.0	357.0	-0.512	0.023	
6.0	0.0	0.0	0.0	0.0	370.0	-0.471	0.009	
7.0	0.0	0.0	0.0	0.0	387.0	-0.432	-0.067	
8.0	0.0	0.0	0.0	0.0	404.0	-0.393	0.012	
9.0	0.0	0.0	0.0	0.0	421.0	-0.351	-0.076	
10.0	0.0	0.0	0.0	0.0	439.0	-0.309	-0.009	
11.0	0.0	0.0	0.0	0.0	456.0	-0.264	-0.076	
12.0	0.0	0.0	0.0	0.0	470.0	-0.216	0.009	
13.0	0.0	0.0	0.0	0.0	483.0	-0.168	-0.07	
14.0	0.0	0.0	0.0	0.0	497.0	-0.116	-0.023	
15.0	0.0	0.0	0.0	0.0	508.0	-0.061	-0.123	
0.0	0.0	0.0	0.0	0.0	518.0	-0.006	-0.006	
1.0	0.0	0.0	0.0	0.0	524.0	0.052	-0.082	
2.0	0.0	0.0	0.0	0.0	527.0	0.106	-0.026	
3.0	0.0	0.0	0.0	0.0	527.0	0.161	-0.091	
4.0	0.0	0.0	0.0	0.0	526.0	0.219	0.009	
5.0	0.0	0.0	0.0	0.0	526.0	0.274	-0.059	
6.0	0.0	0.0	0.0	0.0	523.0	0.332	0.012	
7.0	0.0	0.0	0.0	0.0	520.0	0.387	-0.021	
8.0	0.0	0.0	0.0	0.0	517.0	0.442	0.038	
9.0	0.0	0.0	0.0	0.0	515.0	0.5	-0.009	
10.0	0.0	0.0	0.0	0.0	514.0	0.554	0.05	
11.0	0.0	0.0	0.0	0.0	512.0	0.609	0.003	
12.0	0.0	0.0	0.0	0.0	511.0	0.667	0.073	
13.0	0.0	0.0	0.0	0.0	512.0	0.722	-0.012	
14.0	0.0	0.0	0.0	0.0	513.0	0.773	0.067	
15.0	0.0	0.0	0.0	0.0	513.0	0.828	-0.003	
0.0	0.0	0.0	0.0	0.0	512.0	0.877	0.062	
1.0	0.0	0.0	0.0	0.0	513.0	0.925	-0.026	
2.0	0.0	0.0	0.0	0.0	514.0	0.973	0.021	
3.0	0.0	0.0	0.0	0.0	513.0	1.012	-0.038	
4.0	0.0	0.0	0.0	0.0	513.0	1.054	0.012	
5.0	0.0	0.0	0.0	0.0	512.0	1.089	-0.05	
6.0	0.0	0.0	0.0	0.0	510.0	1.125	0.018	
7.0	0.0	0.0	0.0	0.0	507.0	1.157	-0.023	
8.0	0.0	0.0	0.0	0.0	504.0	1.189	0.032	
9.0	0.0	0.0	0.0	0.0	502.0	1.218	-0.059	
10.0	0.0	0.0	0.0	0.0	499.0	1.244	0.023	
11.0	0.0	0.0	0.0	0.0	497.0	1.27	-0.015	
12.0	0.0	0.0	0.0	0.0	495.0	1.292	0.035	
13.0	0.0	0.0	0.0	0.0	494.0	1.315	-0.029	
14.0	0.0	0.0	0.0	0.0	494.0	1.337	0.05	
15.0	0.0	0.0	0.0	0.0	494.0	1.357	-0.023	
0.0	0.0	0.0	0.0	0.0	493.0	1.373	0.041	
1.0	0.0	0.0	0.0	0.0	492.0	1.389	-0.029	
2.0	0.0	0.0	0.0	0.0	490.0	1.402	0.015	
3.0	0.0	0.0	0.0	0.0	490.0	1.412	-0.047	
4.0	0.0	0.0	0.0	0.0	489.0	1.418	0.038	
5.0	0.0	0.0	0.0	0.0	488.0	1.424	-0.047	
6.0	0.0	0.0	0.0	0.0	487.0	1.428	0.018	
7.0	0.0	0.0	0.0	0.0	486.0	1.428	-0.038	
8.0	0.0	0.0	0.0	0.0	486.0	1.428	0.032	
9.0	0.0	0.0	0.0	0.0	483.0	1.424	-0.044	
10.0	0.0	0.0	0.0	0.0	480.0	1.415	0.035	
11.0	0.0	0.0	0.0	0.0	478.0	1.405	-0.05	
12.0	0.0	0.0	0.0	0.0	477.0	1.389	0.088	
13.0	0.0	0.0	0.0	0.0	477.0	1.373	0.041	
14.0	0.0	0.0	0.0	0.0	477.0	1.36	0.149	
15.0	0.0	0.0	0.0	0.0	479.0	1.347	0.082	
0.0	0.0	0.0	0.0	0.0	478.0	1.334	0.129	
1.0	0.0	0.0	0.0	0.0	477.0	1.325	-0.006	
2.0	0.0	0.0	0.0	0.0	478.0	1.315	-0.038	
3.0	0.0	0.0	0.0	0.0	478.0	1.305	-0.126	
4.0	0.0	0.0	0.0	0.0	477.0	1.296	-0.085	
5.0	0.0	0.0	0.0	0.0	476.0	1.283	-0.094	
6.0	0.0	0.0	0.0	0.0	475.0	1.27	-0.012	
7.0	0.0	0.0	0.0	0.0	474.0	1.254	-0.103	
8.0	0.0	0.0	0.0	0.0	474.0	1.237	-0.07	
9.0	0.0	0.0	0.0	0.0	473.0	1.218	-0.044	
10.0	0.0	0.0	0.0	0.0	471.0	1.199	0.489	
11.0	0.0	0.0	0.0	0.0	469.0	1.176	0.677	
12.0	0.0	0.0	0.0	0.0	469.0	1.154	0.199	
13.0	0.0	0.0	0.0	0.0	468.0	1.128	-0.079	
14.0	0.0	0.0	0.0	0.0	468.0	1.099	-0.144	
15.0	0.0	0.0	0.0	0.0	469.0	1.07	-0.234	
0.0	0.0	0.0	0.0	0.0	469.0	1.038	-0.158	
1.0	0.0	0.0	0.0	0.0	468.0	1.005	-0.182	
2.0	0.0	0.0	0.0	0.0	467.0	0.976	-0.126	
3.0	0.0	0.0	0.0	0.0	465.0	0.941	-0.167	
4.0	0.0	0.0	0.0	0.0	463.0	0.906	-0.073	
5.0	0.0	0.0	0.0	0.0	464.0	0.873	-0.158	
6.0	0.0	0.0	0.0	0.0	465.0	0.835	-0.073	
7.0	0.0	0.0	0.0	0.0	466.0	0.799	-0.129	
8.0	0.0	0.0	0.0	0.0	466.0	0.754	-0.044	
9.0	0.0	0.0	0.0	0.0	465.0	0.712	-0.126	
10.0	0.0	0.0	0.0	0.0	464.0	0.667	-0.038	
11.0	0.0	0.0	0.0	0.0	462.0	0.622	-0.091	
12.0	0.0	0.0	0.0	0.0	461.0	0.577	-0.021	
13.0	0.0	0.0	0.0	0.0	459.0	0.529	-0.073	
14.0	0.0	0.0	0.0	0.0	458.0	0.483	-0.012	
15.0	0.0	0.0	0.0	0.0	460.0	0.435	-0.076	
0.0	0.0	0.0	0.0	0.0	462.0	0.39	-0.026	
1.0	0.0	0.0	0.0	0.0	463.0	0.348	-0.105	
2.0	0.0	0.0	0.0	0.0	465.0	0.303	-0.012	
3.0	0.0	0.0	0.0	0.0	470.0	0.258	-0.135	
4.0	0.0	0.0	0.0	0.0	475.0	0.213	-0.026	
5.0	0.0	0.0	0.0	0.0	481.0	0.168	-0.117	
6.0	0.0	0.0	0.0	0.0	489.0	0.126	-0.053	
7.0	0.0	0.0	0.0	0.0	496.0	0.084	-0.12	
8.0	0.0	0.0	0.0	0.0	504.0	0.042	-0.05	
9.0	0.0	0.0	0.0	0.0	512.0	0.0	-0.144	
10.0	0.0	0.0	0.0	0.0	521.0	-0.042	-0.067	
11.0	0.0	0.0	0.0	0.0	529.0	-0.084	-0.146	
12.0	0.0	0.0	0.0	0.0	537.0	-0.126	-0.105	
13.0	0.0	0.0	0.0	0.0	543.0	-0.168	-0.179	
14.0	0.0	0.0	0.0	0.0	548.0	-0.206	-0.103	
15.0	0.0	0.0	0.0	0.0	551.0	-0.245	-0.199	
0.0	0.0	0.0	0.0	0.0	552.0	-0.284	-0.12	
1.0	0.0	0.0	0.0	0.0	553.0	-0.322	-0.155	
2.0	0.0	0.0	0.0	0.0	553.0	-0.358	-0.088	
3.0	0.0	0.0	0.0	0.0	551.0	-0.393	-0.185	
4.0	0.0	0.0	0.0	0.0	550.0	-0.432	-0.05	
5.0	0.0	0.0	0.0	0.0	548.0	-0.467	-0.152	
6.0	0.0	0.0	0.0	0.0	544.0	-0.506	-0.026	
7.0	0.0	0.0	0.0	0.0	541.0	-0.541	-0.091	
8.0	0.0	0.0	0.0	0.0	538.0	-0.577	-0.023	
9.0	0.0	0.0	0.0	0.0	535.0	-0.609	-0.07	
10.0	0.0	0.0	0.0	0.0	533.0	-0.641	-0.026	
11.0	0.0	0.0	0.0	0.0	533.0	-0.674	-0.076	
12.0	0.0	0.0	0.0	0.0	533.0	-0.706	0.012	
13.0	0.0	0.0	0.0	0.0	532.0	-0.735	-0.07	
14.0	0.0	0.0	0.0	0.0	531.0	-0.761	-0.038	
15.0	0.0	0.0	0.0	0.0	531.0	-0.793	-0.073	
0.0	0.0	0.0	0.0	0.0	529.0	-0.815	-0.003	
1.0	0.0	0.0	0.0	0.0	526.0	-0.838	-0.079	
2.0	0.0	0.0	0.0	0.0	525.0	-0.86	-0.05	
3.0	0.0	0.0	0.0	0.0	525.0	-0.883	-0.05	
4.0	0.0	0.0	0.0	0.0	525.0	-0.902	0.015	
5.0	0.0	0.0	0.0	0.0	522.0	-0.922	-0.062	
6.0	0.0	0.0	0.0	0.0	521.0	-0.935	-0.009	
7.0	0.0	0.0	0.0	0.0	519.0	-0.951	-0.079	
8.0	0.0	0.0	0.0	0.0	516.0	-0.967	0.0	
9.0	0.0	0.0	0.0	0.0	514.0	-0.983	-0.076	
10.0	0.0	0.0	0.0	0.0	511.0	-0.996	-0.053	
11.0	0.0	0.0	0.0	0.0	509.0	-1.012	-0.044	
12.0	0.0	0.0	0.0	0.0	508.0	-1.028	-0.012	
13.0	0.0	0.0	0.0	0.0	506.0	-1.047	-0.073	
14.0	0.0	0.0	0.0	0.0	505.0	-1.06	-0.015	
15.0	0.0	0.0	0.0	0.0	505.0	-1.083	-0.085	
0.0	0.0	0.0	0.0	0.0	506.0	-1.099	0.012	
1.0	0.0	0.0	0.0	0.0	504.0	-1.115	-0.026	
2.0	0.0	0.0	0.0	0.0	504.0	-1.138	0.076	
3.0	0.0	0.0	0.0	0.0	502.0	-1.157	0.044	
4.0	0.0	0.0	0.0	0.0	499.0	-1.179	0.152	
5.0	0.0	0.0	0.0	0.0	497.0	-1.202	0.123	
6.0	0.0	0.0	0.0	0.0	495.0	-1.221	0.176	
7.0	0.0	0.0	0.0	0.0	494.0	-1.244	0.035	
8.0	0.0	0.0	0.0	0.0	494.0	-1.273	0.021	
9.0	0.0	0.0	0.0	0.0	494.0	-1.302	-0.158	
10.0	0.0	0.0	0.0	0.0	493.0	-1.321	-0.059	
11.0	0.0	0.0	0.0	0.0	489.0	-1.341	-0.126	
12.0	0.0	0.0	0.0	0.0	488.0	-1.363	-0.07	
13.0	0.0	0.0	0.0	0.0	487.0	-1.383	-0.123	
14.0	0.0	0.0	0.0	0.0	486.0	-1.399	-0.035	
15.0	0.0	0.0	0.0	0.0	484.0	-1.412	-0.155	
0.0	0.0	0.0	0.0	0.0	486.0	-1.431	0.19	
1.0	0.0	0.0	0.0	0.0	486.0	-1.447	0.586	
2.0	0.0	0.0	0.0	0.0	487.0	-1.463	0.574	
3.0	0.0	0.0	0.0	0.0	488.0	-1.47	-0.059	
4.0	0.0	0.0	0.0	0.0	489.0	-1.479	-0.129	
5.0	0.0	0.0	0.0	0.0	490.0	-1.492	-0.19	
6.0	0.0	0.0	0.0	0.0	489.0	-1.502	-0.114	
7.0	0.0	0.0	0.0	0.0	488.0	-1.511	-0.144	
8.0	0.0	0.0	0.0	0.0	488.0	-1.518	-0.059	
9.0	0.0	0.0	0.0	0.0	487.0	-1.524	-0.152	
10.0	0.0	0.0	0.0	0.0	487.0	-1.528	-0.035	
11.0	0.0	0.0	0.0	0.0	487.0	-1.537	-0.085	
12.0	0.0	0.0	0.0	0.0	487.0	-1.544	-0.026	
13.0	0.0	0.0	0.0	0.0	485.0	-1.54	-0.082	
14.0	0.0	0.0	0.0	0.0	485.0	-1.547	-0.009	
15.0	0.0	0.0	0.0	0.0	484.0	-1.547	-0.076	
0.0	0.0	0.0	0.0	0.0	484.0	-1.55	-0.003	
1.0	0.0	0.0	0.0	0.0	480.0	-1.55	-0.059	
2.0	0.0	0.0	0.0	0.0	479.0	-1.553	0.0	
3.0	0.0	0.0	0.0	0.0	479.0	-1.544	-0.059	
4.0	0.0	0.0	0.0	0.0	478.0	-1.544	0.015	
5.0	0.0	0.0	0.0	0.0	477.0	-1.547	-0.073	
6.0	0.0	0.0	0.0	0.0	476.0	-1.534	0.0	
7.0	0.0	0.0	0.0	0.0	477.0	-1.534	-0.073	
8.0	0.0	0.0	0.0	0.0	478.0	-1.534	-0.006	
9.0	0.0	0.0	0.0	0.0	481.0	-1.524	-0.079	
10.0	0.0	0.0	0.0	0.0	483.0	-1.521	-0.018	
11.0	0.0	0.0	0.0	0.0	488.0	-1.518	-0.094	
12.0	0.0	0.0	0.0	0.0	496.0	-1.518	-0.015	
13.0	0.0	0.0	0.0	0.0	502.0	-1.508	-0.103	
14.0	0.0	0.0	0.0	0.0	509.0	-1.505	-0.047	
15.0	0.0	0.0	0.0	0.0	517.0	-1.489	-0.111	
0.0	0.0	0.0	0.0	0.0	525.0	-1.476	-0.035	
1.0	0.0	0.0	0.0	0.0	532.0	-1.466	-0.091	
2.0	0.0	0.0	0.0	0.0	538.0	-1.444	-0.026	
3.0	0.0	0.0	0.0	0.0	543.0	-1.418	-0.135	
4.0	0.0	0.0	0.0	0.0	547.0	-1.383	-0.023	
5.0	0.0	0.0	0.0	0.0	546.0	-1.35	-0.076	
6.0	0.0	0.0	0.0	0.0	547.0	-1.312	-0.035	
7.0	0.0	0.0	0.0	0.0	548.0	-1.27	-0.073	
8.0	0.0	0.0	0.0	0.0	545.0	-1.221	0.012	
9.0	0.0	0.0	0.0	0.0	542.0	-1.167	-0.059	
10.0	0.0	0.0	0.0	0.0	539.0	-1.115	0.038	
11.0	0.0	0.0	0.0	0.0	537.0	-1.057	-0.015	
12.0	0.0	0.0	0.0	0.0	536.0	-1.002	0.056	
13.0	0.0	0.0	0.0	0.0	534.0	-0.935	0.015	
14.0	0.0	0.0	0.0	0.0	532.0	-0.877	0.091	
15.0	0.0	0.0	0.0	0.0	531.0	-0.812	0.035	
0.0	0.0	0.0	0.0	0.0	529.0	-0.748	0.117	
1.0	0.0	0.0	0.0	0.0	528.0	-0.686	0.053	
2.0	0.0	0.0	0.0	0.0	528.0	-0.619	0.094	
3.0	0.0	0.0	0.0	0.0	531.0	-0.558	0.015	
4.0	0.0	0.0	0.0	0.0	533.0	-0.493	0.132	
5.0	0.0	0.0	0.0	0.0	533.0	-0.429	0.029	
6.0	0.0	0.0	0.0	0.0	534.0	-0.367	0.088	
7.0	0.0	0.0	0.0	0.0	534.0	-0.306	0.009	
8.0	0.0	0.0	0.0	0.0	534.0	-0.248	0.059	
9.0	0.0	0.0	0.0	0.0	530.0	-0.187	0.015	
10.0	0.0	0.0	0.0	0.0	528.0	-0.129	0.064	
11.0	0.0	0.0	0.0	0.0	525.0	-0.071	-0.012	
12.0	0.0	0.0	0.0	0.0	520.0	-0.013	0.067	
13.0	0.0	0.0	0.0	0.0	515.0	0.048	-0.021	
14.0	0.0	0.0	0.0	0.0	512.0	0.103	0.053	
15.0	0.0	0.0	0.0	0.0	508.0	0.158	-0.035	
0.0	0.0	0.0	0.0	0.0	505.0	0.213	0.044	
1.0	0.0	0.0	0.0	0.0	502.0	0.267	-0.029	
2.0	0.0	0.0	0.0	0.0	500.0	0.319	0.032	
3.0	0.0	0.0	0.0	0.0	500.0	0.371	-0.026	
4.0	0.0	0.0	0.0	0.0	500.0	0.416	0.021	
5.0	0.0	0.0	0.0	0.0	500.0	0.464	-0.023	
6.0	0.0	0.0	0.0	0.0	499.0	0.509	0.062	
7.0	0.0	0.0	0.0	0.0	499.0	0.551	-0.012	
8.0	0.0	0.0	0.0	0.0	500.0	0.593	0.05	
9.0	0.0	0.0	0.0	0.0	500.0	0.632	-0.026	
10.0	0.0	0.0	0.0	0.0	500.0	0.67	0.135	
11.0	0.0	0.0	0.0	0.0	499.0	0.709	0.079	
12.0	0.0	0.0	0.0	0.0	498.0	0.744	0.17	
13.0	0.0	0.0	0.0	0.0	496.0	0.777	0.111	
14.0	0.0	0.0	0.0	0.0	495.0	0.809	0.149	
15.0	0.0	0.0	0.0	0.0	493.0	0.838	0.032	
0.0	0.0	0.0	0.0	0.0	491.0	0.864	-0.023	
1.0	0.0	0.0	0.0	0.0	489.0	0.893	-0.144	
2.0	0.0	0.0	0.0	0.0	489.0	0.915	-0.067	
3.0	0.0	0.0	0.0	0.0	488.0	0.938	-0.158	
4.0	0.0	0.0	0.0	0.0	489.0	0.954	-0.07	
5.0	0.0	0.0	0.0	0.0	489.0	0.97	-0.132	
6.0	0.0	0.0	0.0	0.0	491.0	0.983	-0.05	
7.0	0.0	0.0	0.0	0.0	492.0	0.996	-0.138	
8.0	0.0	0.0	0.0	0.0	491.0	1.005	0.258	
9.0	0.0	0.0	0.0	0.0	490.0	1.012	0.551	
10.0	0.0	0.0	0.0	0.0	490.0	1.018	0.501	
11.0	0.0	0.0	0.0	0.0	489.0	1.018	-0.023	
12.0	0.0	0.0	0.0	0.0	489.0	1.022	-0.07	
13.0	0.0	0.0	0.0	0.0	489.0	1.025	-0.264	
14.0	0.0	0.0	0.0	0.0	488.0	1.028	-0.123	
15.0	0.0	0.0	0.0	0.0	488.0	1.028	-0.202	
0.0	0.0	0.0	0.0	0.0	487.0	1.028	-0.082	
1.0	0.0	0.0	0.0	0.0	487.0	1.031	-0.141	
2.0	0.0	0.0	0.0	0.0	486.0	1.028	-0.047	
3.0	0.0	0.0	0.0	0.0	484.0	1.028	-0.091	
4.0	0.0	0.0	0.0	0.0	483.0	1.018	-0.015	
5.0	0.0	0.0	0.0	0.0	482.0	1.005	-0.073	
6.0	0.0	0.0	0.0	0.0	482.0	0.983	0.018	
7.0	0.0	0.0	0.0	0.0	482.0	0.957	-0.035	
8.0	0.0	0.0	0.0	0.0	481.0	0.931	0.018	
9.0	0.0	0.0	0.0	0.0	479.0	0.896	-0.038	
10.0	0.0	0.0	0.0	0.0	477.0	0.86	0.05	
11.0	0.0	0.0	0.0	0.0	475.0	0.822	-0.012	
12.0	0.0	0.0	0.0	0.0	475.0	0.78	0.079	
13.0	0.0	0.0	0.0	0.0	475.0	0.741	0.0	
14.0	0.0	0.0	0.0	0.0	475.0	0.699	0.082	
15.0	0.0	0.0	0.0	0.0	475.0	0.654	-0.006	
0.0	0.0	0.0	0.0	0.0	476.0	0.619	0.079	
1.0	0.0	0.0	0.0	0.0	479.0	0.574	0.032	
2.0	0.0	0.0	0.0	0.0	480.0	0.529	0.064	
3.0	0.0	0.0	0.0	0.0	483.0	0.487	0.041	
4.0	0.0	0.0	0.0	0.0	490.0	0.442	0.103	
5.0	0.0	0.0	0.0	0.0	494.0	0.396	-0.009	
6.0	0.0	0.0	0.0	0.0	498.0	0.354	0.059	
7.0	0.0	0.0	0.0	0.0	504.0	0.309	-0.009	
8.0	0.0	0.0	0.0	0.0	512.0	0.271	0.021	
9.0	0.0	0.0	0.0	0.0	518.0	0.229	-0.07	
10.0	0.0	0.0	0.0	0.0	524.0	0.19	-0.006	
11.0	0.0	0.0	0.0	0.0	529.0	0.151	-0.079	
12.0	0.0	0.0	0.0	0.0	533.0	0.113	-0.038	
13.0	0.0	0.0	0.0	0.0	533.0	0.077	-0.103	
14.0	0.0	0.0	0.0	0.0	535.0	0.039	-0.041	
15.0	0.0	0.0	0.0	0.0	536.0	0.0	-0.1	
0.0	0.0	0.0	0.0	0.0	536.0	-0.042	-0.023	
1.0	0.0	0.0	0.0	0.0	535.0	-0.081	-0.091	
2.0	0.0	0.0	0.0	0.0	533.0	-0.119	-0.029	
3.0	0.0	0.0	0.0	0.0	529.0	-0.158	-0.062	
4.0	0.0	0.0	0.0	0.0	526.0	-0.197	0.023	
5.0	0.0	0.0	0.0	0.0	524.0	-0.232	-0.1	
6.0	0.0	0.0	0.0	0.0	524.0	-0.267	0.05	
7.0	0.0	0.0	0.0	0.0	525.0	-0.303	-0.003	
8.0	0.0	0.0	0.0	0.0	527.0	-0.335	0.041	
9.0	0.0	0.0	0.0	0.0	527.0	-0.371	-0.032	
10.0	0.0	0.0	0.0	0.0	528.0	-0.406	0.047	
11.0	0.0	0.0	0.0	0.0	527.0	-0.438	-0.029	
12.0	0.0	0.0	0.0	0.0	527.0	-0.471	0.056	
13.0	0.0	0.0	0.0	0.0	527.0	-0.506	-0.035	
14.0	0.0	0.0	0.0	0.0	526.0	-0.538	0.047	
15.0	0.0	0.0	0.0	0.0	524.0	-0.57	-0.035	
0.0	0.0	0.0	0.0	0.0	523.0	-0.603	0.003	
1.0	0.0	0.0	0.0	0.0	521.0	-0.632	-0.076	
2.0	0.0	0.0	0.0	0.0	520.0	-0.657	0.035	
3.0	0.0	0.0	0.0	0.0	519.0	-0.686	-0.064	
4.0	0.0	0.0	0.0	0.0	515.0	-0.712	0.0	
5.0	0.0	0.0	0.0	0.0	512.0	-0.741	-0.064	
6.0	0.0	0.0	0.0	0.0	513.0	-0.77	0.026	
7.0	0.0	0.0	0.0	0.0	512.0	-0.796	-0.079	
8.0	0.0	0.0	0.0	0.0	511.0	-0.819	0.05	
9.0	0.0	0.0	0.0	0.0	511.0	-0.838	-0.076	
10.0	0.0	0.0	0.0	0.0	510.0	-0.857	-0.003	
11.0	0.0	0.0	0.0	0.0	511.0	-0.88	0.041	
12.0	0.0	0.0	0.0	0.0	508.0	-0.896	0.097	
13.0	0.0	0.0	0.0	0.0	507.0	-0.909	0.047	
14.0	0.0	0.0	0.0	0.0	507.0	-0.922	0.164	
15.0	0.0	0.0	0.0	0.0	505.0	-0.931	0.062	
0.0	0.0	0.0	0.0	0.0	505.0	-0.941	0.103	
1.0	0.0	0.0	0.0	0.0	504.0	-0.954	-0.032	
2.0	0.0	0.0	0.0	0.0	505.0	-0.967	-0.035	
3.0	0.0	0.0	0.0	0.0	505.0	-0.973	-0.144	
4.0	0.0	0.0	0.0	0.0	504.0	-0.986	-0.056	
5.0	0.0	0.0	0.0	0.0	504.0	-0.996	-0.129	
6.0	0.0	0.0	0.0	0.0	503.0	-1.009	-0.05	
7.0	0.0	0.0	0.0	0.0	502.0	-1.018	-0.1	
8.0	0.0	0.0	0.0	0.0	500.0	-1.031	-0.082	
9.0	0.0	0.0	0.0	0.0	498.0	-1.038	-0.006	
10.0	0.0	0.0	0.0	0.0	498.0	-1.041	0.539	
11.0	0.0	0.0	0.0	0.0	497.0	-1.041	0.604	
12.0	0.0	0.0	0.0	0.0	496.0	-1.038	0.164	
13.0	0.0	0.0	0.0	0.0	496.0	-1.028	-0.117	
14.0	0.0	0.0	0.0	0.0	496.0	-1.022	-0.129	
15.0	0.0	0.0	0.0	0.0	496.0	-1.012	-0.185	
0.0	0.0	0.0	0.0	0.0	495.0	-0.993	-0.059	
1.0	0.0	0.0	0.0	0.0	494.0	-0.976	-0.123	
2.0	0.0	0.0	0.0	0.0	493.0	-0.947	-0.032	
3.0	0.0	0.0	0.0	0.0	493.0	-0.922	-0.073	
4.0	0.0	0.0	0.0	0.0	495.0	-0.893	0.018	
5.0	0.0	0.0	0.0	0.0	495.0	-0.86	-0.056	
6.0	0.0	0.0	0.0	0.0	494.0	-0.831	0.021	
7.0	0.0	0.0	0.0	0.0	494.0	-0.802	0.0	
8.0	0.0	0.0	0.0	0.0	492.0	-0.777	0.064	
9.0	0.0	0.0	0.0	0.0	491.0	-0.751	0.009	
10.0	0.0	0.0	0.0	0.0	491.0	-0.728	0.1	
11.0	0.0	0.0	0.0	0.0	492.0	-0.703	0.015	
12.0	0.0	0.0	0.0	0.0	492.0	-0.68	0.129	
13.0	0.0	0.0	0.0	0.0	491.0	-0.664	0.035	
14.0	0.0	0.0	0.0	0.0	491.0	-0.648	0.138	
15.0	0.0	0.0	0.0	0.0	489.0	-0.632	0.053	
0.0	0.0	0.0	0.0	0.0	487.0	-0.616	0.149	
1.0	0.0	0.0	0.0	0.0	486.0	-0.599	0.094	
2.0	0.0	0.0	0.0	0.0	487.0	-0.583	0.158	
3.0	0.0	0.0	0.0	0.0	486.0	-0.567	0.1	
4.0	0.0	0.0	0.0	0.0	487.0	-0.551	0.144	
5.0	0.0	0.0	0.0	0.0	489.0	-0.535	0.079	
6.0	0.0	0.0	0.0	0.0	493.0	-0.519	0.126	
7.0	0.0	0.0	0.0	0.0	498.0	-0.503	0.047	
8.0	0.0	0.0	0.0	0.0	504.0	-0.49	0.12	
9.0	0.0	0.0	0.0	0.0	509.0	-0.471	0.003	
10.0	0.0	0.0	0.0	0.0	515.0	-0.454	0.073	
11.0	0.0	0.0	0.0	0.0	519.0	-0.438	-0.015	
12.0	0.0	0.0	0.0	0.0	524.0	-0.419	-0.006	
13.0	0.0	0.0	0.0	0.0	528.0	-0.4	-0.067	
14.0	0.0	0.0	0.0	0.0	532.0	-0.377	-0.012	
15.0	0.0	0.0	0.0	0.0	535.0	-0.361	-0.053	
0.0	0.0	0.0	0.0	0.0	536.0	-0.338	-0.006	
1.0	0.0	0.0	0.0	0.0	536.0	-0.322	-0.076	
2.0	0.0	0.0	0.0	0.0	534.0	-0.306	-0.009	
3.0	0.0	0.0	0.0	0.0	533.0	-0.29	-0.07	
4.0	0.0	0.0	0.0	0.0	532.0	-0.277	0.012	
5.0	0.0	0.0	0.0	0.0	531.0	-0.267	-0.023	
6.0	0.0	0.0	0.0	0.0	531.0	-0.264	0.021	
7.0	0.0	0.0	0.0	0.0	532.0	-0.258	-0.05	
8.0	0.0	0.0	0.0	0.0	532.0	-0.251	0.038	
9.0	0.0	0.0	0.0	0.0	532.0	-0.245	-0.032	
10.0	0.0	0.0	0.0	0.0	531.0	-0.238	0.044	
11.0	0.0	0.0	0.0	0.0	531.0	-0.232	0.021	
12.0	0.0	0.0	0.0	0.0	530.0	-0.226	0.047	
13.0	0.0	0.0	0.0	0.0	529.0	-0.219	0.021	
14.0	0.0	0.0	0.0	0.0	529.0	-0.206	0.059	
15.0	0.0	0.0	0.0	0.0	530.0	-0.197	-0.009	
0.0	0.0	0.0	0.0	0.0	531.0	-0.184	0.07	
1.0	0.0	0.0	0.0	0.0	530.0	-0.168	-0.021	
2.0	0.0	0.0	0.0	0.0	527.0	-0.155	0.056	
3.0	0.0	0.0	0.0	0.0	525.0	-0.135	-0.056	
4.0	0.0	0.0	0.0	0.0	523.0	-0.116	0.056	
5.0	0.0	0.0	0.0	0.0	521.0	-0.097	-0.059	
6.0	0.0	0.0	0.0	0.0	519.0	-0.077	0.047	
7.0	0.0	0.0	0.0	0.0	518.0	-0.055	-0.026	
8.0	0.0	0.0	0.0	0.0	516.0	-0.032	0.064	
9.0	0.0	0.0	0.0	0.0	515.0	-0.006	0.021	
10.0	0.0	0.0	0.0	0.0	516.0	0.019	0.111	
11.0	0.0	0.0	0.0	0.0	515.0	0.042	0.079	
12.0	0.0	0.0	0.0	0.0	513.0	0.068	0.138	
13.0	0.0	0.0	0.0	0.0	511.0	0.093	0.067	
14.0	0.0	0.0	0.0	0.0	510.0	0.116	0.053	
15.0	0.0	0.0	0.0	0.0	511.0	0.142	-0.146	
0.0	0.0	0.0	0.0	0.0	509.0	0.168	-0.059	
1.0	0.0	0.0	0.0	0.0	507.0	0.19	-0.114	
2.0	0.0	0.0	0.0	0.0	504.0	0.213	-0.085	
3.0	0.0	0.0	0.0	0.0	503.0	0.242	-0.094	
4.0	0.0	0.0	0.0	0.0	504.0	0.267	-0.05	
5.0	0.0	0.0	0.0	0.0	504.0	0.296	-0.161	
6.0	0.0	0.0	0.0	0.0	507.0	0.325	0.032	
7.0	0.0	0.0	0.0	0.0	509.0	0.358	0.346	
8.0	0.0	0.0	0.0	0.0	511.0	0.39	0.662	
9.0	0.0	0.0	0.0	0.0	512.0	0.422	0.24	
10.0	0.0	0.0	0.0	0.0	511.0	0.458	0.079	
11.0	0.0	0.0	0.0	0.0	510.0	0.49	-0.217	
12.0	0.0	0.0	0.0	0.0	508.0	0.522	-0.205	
13.0	0.0	0.0	0.0	0.0	505.0	0.554	-0.255	
14.0	0.0	0.0	0.0	0.0	503.0	0.587	-0.144	
15.0	0.0	0.0	0.0	0.0	501.0	0.616	-0.217	
0.0	0.0	0.0	0.0	0.0	499.0	0.645	-0.176	
1.0	0.0	0.0	0.0	0.0	498.0	0.674	-0.205	
2.0	0.0	0.0	0.0	0.0	497.0	0.703	-0.097	
3.0	0.0	0.0	0.0	0.0	497.0	0.725	-0.158	
4.0	0.0	0.0	0.0	0.0	496.0	0.748	-0.044	
5.0	0.0	0.0	0.0	0.0	494.0	0.773	-0.141	
6.0	0.0	0.0	0.0	0.0	494.0	0.799	0.003	
7.0	0.0	0.0	0.0	0.0	494.0	0.825	-0.105	
8.0	0.0	0.0	0.0	0.0	496.0	0.848	0.032	
9.0	0.0	0.0	0.0	0.0	497.0	0.873	-0.064	
10.0	0.0	0.0	0.0	0.0	498.0	0.896	0.044	
11.0	0.0	0.0	0.0	0.0	498.0	0.918	-0.009	
12.0	0.0	0.0	0.0	0.0	498.0	0.938	0.064	
13.0	0.0	0.0	0.0	0.0	498.0	0.96	-0.026	
14.0	0.0	0.0	0.0	0.0	497.0	0.976	0.073	
15.0	0.0	0.0	0.0	0.0	497.0	0.993	-0.012	
0.0	0.0	0.0	0.0	0.0	497.0	1.009	0.073	
1.0	0.0	0.0	0.0	0.0	496.0	1.025	-0.044	
2.0	0.0	0.0	0.0	0.0	498.0	1.038	0.0	
3.0	0.0	0.0	0.0	0.0	500.0	1.051	-0.026	
4.0	0.0	0.0	0.0	0.0	500.0	1.063	0.006	
5.0	0.0	0.0	0.0	0.0	499.0	1.073	-0.056	
6.0	0.0	0.0	0.0	0.0	500.0	1.08	-0.044	
7.0	0.0	0.0	0.0	0.0	501.0	1.089	-0.026	
8.0	0.0	0.0	0.0	0.0	503.0	1.096	-0.035	
9.0	0.0	0.0	0.0	0.0	503.0	1.102	-0.155	
10.0	0.0	0.0	0.0	0.0	505.0	1.105	-0.035	
11.0	0.0	0.0	0.0	0.0	507.0	1.109	-0.144	
12.0	0.0	0.0	0.0	0.0	508.0	1.109	-0.038	
13.0	0.0	0.0	0.0	0.0	508.0	1.109	-0.167	
14.0	0.0	0.0	0.0	0.0	508.0	1.109	-0.038	
15.0	0.0	0.0	0.0	0.0	508.0	1.105	-0.079	
0.0	0.0	0.0	0.0	0.0	509.0	1.102	-0.015	
1.0	0.0	0.0	0.0	0.0	510.0	1.096	-0.059	
2.0	0.0	0.0	0.0	0.0	511.0	1.086	-0.015	
3.0	0.0	0.0	0.0	0.0	514.0	1.076	-0.091	
4.0	0.0	0.0	0.0	0.0	515.0	1.06	0.067	
5.0	0.0	0.0	0.0	0.0	515.0	1.044	-0.053	
6.0	0.0	0.0	0.0	0.0	515.0	1.025	0.064	
7.0	0.0	0.0	0.0	0.0	516.0	0.999	-0.029	
8.0	0.0	0.0	0.0	0.0	517.0	0.973	0.006	
9.0	0.0	0.0	0.0	0.0	518.0	0.947	0.0	
10.0	0.0	0.0	0.0	0.0	519.0	0.912	0.021	
11.0	0.0	0.0	0.0	0.0	521.0	0.88	-0.038	
12.0	0.0	0.0	0.0	0.0	522.0	0.844	0.021	
13.0	0.0	0.0	0.0	0.0	521.0	0.806	-0.082	
14.0	0.0	0.0	0.0	0.0	520.0	0.77	-0.047	
15.0	0.0	0.0	0.0	0.0	519.0	0.732	-0.085	
0.0	0.0	0.0	0.0	0.0	518.0	0.696	0.015	
1.0	0.0	0.0	0.0	0.0	516.0	0.661	-0.021	
2.0	0.0	0.0	0.0	0.0	517.0	0.628	0.012	
3.0	0.0	0.0	0.0	0.0	518.0	0.596	0.073	
4.0	0.0	0.0	0.0	0.0	518.0	0.567	0.103	
5.0	0.0	0.0	0.0	0.0	518.0	0.538	0.026	
6.0	0.0	0.0	0.0	0.0	518.0	0.512	-0.012	
7.0	0.0	0.0	0.0	0.0	518.0	0.49	-0.132	
8.0	0.0	0.0	0.0	0.0	519.0	0.467	-0.059	
9.0	0.0	0.0	0.0	0.0	517.0	0.448	-0.146	
10.0	0.0	0.0	0.0	0.0	518.0	0.429	-0.094	
11.0	0.0	0.0	0.0	0.0	519.0	0.409	-0.108	
12.0	0.0	0.0	0.0	0.0	518.0	0.393	-0.047	
13.0	0.0	0.0	0.0	0.0	518.0	0.38	-0.105	
14.0	0.0	0.0	0.0	0.0	519.0	0.367	-0.062	
15.0	0.0	0.0	0.0	0.0	519.0	0.354	0.223	
0.0	0.0	0.0	0.0	0.0	519.0	0.345	0.592	
1.0	0.0	0.0	0.0	0.0	519.0	0.338	0.302	
2.0	0.0	0.0	0.0	0.0	518.0	0.329	0.114	
3.0	0.0	0.0	0.0	0.0	517.0	0.322	-0.234	
4.0	0.0	0.0	0.0	0.0	515.0	0.316	-0.313	
5.0	0.0	0.0	0.0	0.0	514.0	0.316	-0.39	
6.0	0.0	0.0	0.0	0.0	513.0	0.313	-0.287	
7.0	0.0	0.0	0.0	0.0	512.0	0.316	-0.363	
8.0	0.0	0.0	0.0	0.0	511.0	0.319	-0.17	
9.0	0.0	0.0	0.0	0.0	510.0	0.329	-0.284	
10.0	0.0	0.0	0.0	0.0	508.0	0.335	-0.188	
11.0	0.0	0.0	0.0	0.0	506.0	0.351	-0.237	
12.0	0.0	0.0	0.0	0.0	505.0	0.367	-0.117	
13.0	0.0	0.0	0.0	0.0	504.0	0.39	-0.173	
14.0	0.0	0.0	0.0	0.0	503.0	0.425	-0.085	
15.0	0.0	0.0	0.0	0.0	503.0	0.461	-0.1	
0.0	0.0	0.0	0.0	0.0	504.0	0.493	-0.062	
1.0	0.0	0.0	0.0	0.0	504.0	0.516	-0.135	
2.0	0.0	0.0	0.0	0.0	504.0	0.522	-0.044	
3.0	0.0	0.0	0.0	0.0	505.0	0.512	-0.129	
4.0	0.0	0.0	0.0	0.0	505.0	0.5	-0.044	
5.0	0.0	0.0	0.0	0.0	504.0	0.48	-0.088	
6.0	0.0	0.0	0.0	0.0	504.0	0.454	-0.012	
7.0	0.0	0.0	0.0	0.0	504.0	0.429	-0.091	
8.0	0.0	0.0	0.0	0.0	504.0	0.403	-0.023	
9.0	0.0	0.0	0.0	0.0	505.0	0.383	-0.146	
10.0	0.0	0.0	0.0	0.0	505.0	0.371	-0.006	
11.0	0.0	0.0	0.0	0.0	507.0	0.367	-0.079	
12.0	0.0	0.0	0.0	0.0	509.0	0.361	0.012	
13.0	0.0	0.0	0.0	0.0	513.0	0.354	-0.114	
14.0	0.0	0.0	0.0	0.0	517.0	0.338	-0.012	
15.0	0.0	0.0	0.0	0.0	521.0	0.309	-0.053	
0.0	0.0	0.0	0.0	0.0	526.0	0.277	-0.047	
1.0	0.0	0.0	0.0	0.0	531.0	0.238	-0.17	
2.0	0.0	0.0	0.0	0.0	534.0	0.203	0.021	
3.0	0.0	0.0	0.0	0.0	537.0	0.174	-0.053	
4.0	0.0	0.0	0.0	0.0	539.0	0.148	-0.067	
5.0	0.0	0.0	0.0	0.0	541.0	0.126	-0.073	
6.0	0.0	0.0	0.0	0.0	540.0	0.097	0.035	
7.0	0.0	0.0	0.0	0.0	539.0	0.058	0.0	
8.0	0.0	0.0	0.0	0.0	539.0	0.006	0.003	
9.0	0.0	0.0	0.0	0.0	540.0	-0.052	-0.053	
10.0	0.0	0.0	0.0	0.0	539.0	-0.106	0.038	
11.0	0.0	0.0	0.0	0.0	539.0	-0.155	0.021	
12.0	0.0	0.0	0.0	0.0	540.0	-0.203	0.141	
13.0	0.0	0.0	0.0	0.0	541.0	-0.251	-0.018	
14.0	0.0	0.0	0.0	0.0	540.0	-0.296	0.082	
15.0	0.0	0.0	0.0	0.0	539.0	-0.335	0.064	
0.0	0.0	0.0	0.0	0.0	539.0	-0.374	0.146	
1.0	0.0	0.0	0.0	0.0	536.0	-0.403	0.088	
2.0	0.0	0.0	0.0	0.0	534.0	-0.422	0.17	
3.0	0.0	0.0	0.0	0.0	532.0	-0.435	0.003	
4.0	0.0	0.0	0.0	0.0	531.0	-0.438	0.12	
5.0	0.0	0.0	0.0	0.0	529.0	-0.435	0.018	
6.0	0.0	0.0	0.0	0.0	528.0	-0.425	0.108	
7.0	0.0	0.0	0.0	0.0	528.0	-0.416	0.05	
8.0	0.0	0.0	0.0	0.0	528.0	-0.403	0.208	
9.0	0.0	0.0	0.0	0.0	528.0	-0.387	0.064	
10.0	0.0	0.0	0.0	0.0	526.0	-0.371	0.164	
11.0	0.0	0.0	0.0	0.0	524.0	-0.348	0.185	
12.0	0.0	0.0	0.0	0.0	524.0	-0.325	0.287	
13.0	0.0	0.0	0.0	0.0	524.0	-0.306	0.293	
14.0	0.0	0.0	0.0	0.0	523.0	-0.287	0.249	
15.0	0.0	0.0	0.0	0.0	523.0	-0.267	0.176	
0.0	0.0	0.0	0.0	0.0	524.0	-0.251	0.161	
1.0	0.0	0.0	0.0	0.0	524.0	-0.235	0.047	
2.0	0.0	0.0	0.0	0.0	523.0	-0.222	0.026	
3.0	0.0	0.0	0.0	0.0	521.0	-0.209	-0.026	
4.0	0.0	0.0	0.0	0.0	519.0	-0.2	0.064	
5.0	0.0	0.0	0.0	0.0	517.0	-0.193	0.012	
6.0	0.0	0.0	0.0	0.0	518.0	-0.193	0.044	
7.0	0.0	0.0	0.0	0.0	517.0	-0.187	-0.029	
8.0	0.0	0.0	0.0	0.0	516.0	-0.184	0.176	
9.0	0.0	0.0	0.0	0.0	516.0	-0.184	0.63	
10.0	0.0	0.0	0.0	0.0	516.0	-0.19	0.85	
11.0	0.0	0.0	0.0	0.0	516.0	-0.206	0.246	
12.0	0.0	0.0	0.0	0.0	515.0	-0.229	0.064	
13.0	0.0	0.0	0.0	0.0	514.0	-0.258	-0.226	
14.0	0.0	0.0	0.0	0.0	513.0	-0.287	-0.062	
15.0	0.0	0.0	0.0	0.0	513.0	-0.309	-0.076	
0.0	0.0	0.0	0.0	0.0	513.0	-0.335	0.012	
1.0	0.0	0.0	0.0	0.0	514.0	-0.361	-0.091	
2.0	0.0	0.0	0.0	0.0	513.0	-0.38	-0.085	
3.0	0.0	0.0	0.0	0.0	514.0	-0.396	-0.073	
4.0	0.0	0.0	0.0	0.0	514.0	-0.413	-0.047	
5.0	0.0	0.0	0.0	0.0	514.0	-0.425	0.0	
6.0	0.0	0.0	0.0	0.0	514.0	-0.438	0.094	
7.0	0.0	0.0	0.0	0.0	514.0	-0.458	-0.091	
8.0	0.0	0.0	0.0	0.0	514.0	-0.477	0.041	
9.0	0.0	0.0	0.0	0.0	515.0	-0.5	0.0	
10.0	0.0	0.0	0.0	0.0	515.0	-0.525	0.012	
11.0	0.0	0.0	0.0	0.0	513.0	-0.548	-0.059	
12.0	0.0	0.0	0.0	0.0	513.0	-0.567	0.07	
13.0	0.0	0.0	0.0	0.0	513.0	-0.58	0.038	
14.0	0.0	0.0	0.0	0.0	513.0	-0.599	0.026	
15.0	0.0	0.0	0.0	0.0	511.0	-0.619	0.018	
0.0	0.0	0.0	0.0	0.0	512.0	-0.638	0.179	
1.0	0.0	0.0	0.0	0.0	511.0	-0.661	0.035	
2.0	0.0	0.0	0.0	0.0	512.0	-0.68	0.076	
3.0	0.0	0.0	0.0	0.0	513.0	-0.693	0.012	
4.0	0.0	0.0	0.0	0.0	516.0	-0.706	0.056	
5.0	0.0	0.0	0.0	0.0	521.0	-0.706	0.026	
6.0	0.0	0.0	0.0	0.0	525.0	-0.709	0.123	
7.0	0.0	0.0	0.0	0.0	531.0	-0.712	0.0	
8.0	0.0	0.0	0.0	0.0	537.0	-0.719	0.114	
9.0	0.0	0.0	0.0	0.0	544.0	-0.725	-0.009	
10.0	0.0	0.0	0.0	0.0	550.0	-0.732	-0.038	
11.0	0.0	0.0	0.0	0.0	554.0	-0.744	-0.053	
12.0	0.0	0.0	0.0	0.0	557.0	-0.751	0.003	
13.0	0.0	0.0	0.0	0.0	558.0	-0.767	-0.026	
14.0	0.0	0.0	0.0	0.0	560.0	-0.777	0.021	
15.0	0.0	0.0	0.0	0.0	560.0	-0.79	-0.079	
0.0	0.0	0.0	0.0	0.0	560.0	-0.799	0.035	
1.0	0.0	0.0	0.0	0.0	561.0	-0.806	-0.094	
2.0	0.0	0.0	0.0	0.0	559.0	-0.809	0.032	
3.0	0.0	0.0	0.0	0.0	558.0	-0.812	-0.059	
4.0	0.0	0.0	0.0	0.0	556.0	-0.809	0.123	
5.0	0.0	0.0	0.0	0.0	555.0	-0.812	0.129	
6.0	0.0	0.0	0.0	0.0	555.0	-0.819	0.079	
7.0	0.0	0.0	0.0	0.0	556.0	-0.819	0.038	
8.0	0.0	0.0	0.0	0.0	557.0	-0.802	0.135	
9.0	0.0	0.0	0.0	0.0	557.0	-0.78	0.138	
10.0	0.0	0.0	0.0	0.0	558.0	-0.744	0.185	
11.0	0.0	0.0	0.0	0.0	558.0	-0.709	0.059	
12.0	0.0	0.0	0.0	0.0	555.0	-0.664	0.07	
13.0	0.0	0.0	0.0	0.0	551.0	-0.632	0.082	
14.0	0.0	0.0	0.0	0.0	548.0	-0.596	0.085	
15.0	0.0	0.0	0.0	0.0	547.0	-0.561	0.059	
0.0	0.0	0.0	0.0	0.0	546.0	-0.529	0.05	
1.0	0.0	0.0	0.0	0.0	547.0	-0.493	0.023	
2.0	0.0	0.0	0.0	0.0	546.0	-0.467	0.073	
3.0	0.0	0.0	0.0	0.0	544.0	-0.451	0.094	
4.0	0.0	0.0	0.0	0.0	544.0	-0.442	0.229	
5.0	0.0	0.0	0.0	0.0	543.0	-0.438	0.07	
6.0	0.0	0.0	0.0	0.0	542.0	-0.445	0.138	
7.0	0.0	0.0	0.0	0.0	539.0	-0.458	-0.111	
8.0	0.0	0.0	0.0	0.0	537.0	-0.477	-0.097	
9.0	0.0	0.0	0.0	0.0	535.0	-0.493	-0.223	
10.0	0.0	0.0	0.0	0.0	534.0	-0.503	-0.167	
11.0	0.0	0.0	0.0	0.0	532.0	-0.512	-0.129	
12.0	0.0	0.0	0.0	0.0	531.0	-0.522	-0.167	
13.0	0.0	0.0	0.0	0.0	531.0	-0.538	-0.176	
14.0	0.0	0.0	0.0	0.0	531.0	-0.564	-0.12	
15.0	0.0	0.0	0.0	0.0	529.0	-0.603	-0.167	
0.0	0.0	0.0	0.0	0.0	529.0	-0.664	0.401	
1.0	0.0	0.0	0.0	0.0	529.0	-0.728	0.706	
2.0	0.0	0.0	0.0	0.0	528.0	-0.79	0.472	
3.0	0.0	0.0	0.0	0.0	526.0	-0.848	-0.138	
4.0	0.0	0.0	0.0	0.0	525.0	-0.902	-0.179	
5.0	0.0	0.0	0.0	0.0	524.0	-0.951	-0.343	
6.0	0.0	0.0	0.0	0.0	521.0	-0.996	-0.214	
7.0	0.0	0.0	0.0	0.0	518.0	-1.038	-0.234	
8.0	0.0	0.0	0.0	0.0	517.0	-1.076	-0.12	
9.0	0.0	0.0	0.0	0.0	515.0	-1.115	-0.202	
10.0	0.0	0.0	0.0	0.0	516.0	-1.15	-0.146	
11.0	0.0	0.0	0.0	0.0	515.0	-1.183	-0.167	
12.0	0.0	0.0	0.0	0.0	514.0	-1.215	-0.076	
13.0	0.0	0.0	0.0	0.0	512.0	-1.244	-0.132	
14.0	0.0	0.0	0.0	0.0	512.0	-1.263	-0.044	
15.0	0.0	0.0	0.0	0.0	512.0	-1.286	-0.07	
0.0	0.0	0.0	0.0	0.0	513.0	-1.305	-0.044	
1.0	0.0	0.0	0.0	0.0	514.0	-1.328	-0.144	
2.0	0.0	0.0	0.0	0.0	515.0	-1.347	-0.018	
3.0	0.0	0.0	0.0	0.0	515.0	-1.366	-0.076	
4.0	0.0	0.0	0.0	0.0	517.0	-1.392	0.021	
5.0	0.0	0.0	0.0	0.0	518.0	-1.408	-0.05	
6.0	0.0	0.0	0.0	0.0	519.0	-1.415	-0.038	
7.0	0.0	0.0	0.0	0.0	518.0	-1.415	-0.05	
8.0	0.0	0.0	0.0	0.0	519.0	-1.402	0.012	
9.0	0.0	0.0	0.0	0.0	519.0	-1.386	-0.094	
10.0	0.0	0.0	0.0	0.0	521.0	-1.363	0.032	
11.0	0.0	0.0	0.0	0.0	522.0	-1.331	-0.044	
12.0	0.0	0.0	0.0	0.0	526.0	-1.299	-0.041	
13.0	0.0	0.0	0.0	0.0	532.0	-1.273	-0.123	
14.0	0.0	0.0	0.0	0.0	537.0	-1.241	-0.067	
15.0	0.0	0.0	0.0	0.0	543.0	-1.212	-0.173	
0.0	0.0	0.0	0.0	0.0	548.0	-1.189	-0.123	
1.0	0.0	0.0	0.0	0.0	554.0	-1.167	-0.214	
2.0	0.0	0.0	0.0	0.0	561.0	-1.15	-0.167	
3.0	0.0	0.0	0.0	0.0	564.0	-1.134	-0.275	
4.0	0.0	0.0	0.0	0.0	568.0	-1.115	-0.158	
5.0	0.0	0.0	0.0	0.0	569.0	-1.102	-0.214	
6.0	0.0	0.0	0.0	0.0	570.0	-1.086	-0.141	
7.0	0.0	0.0	0.0	0.0	571.0	-1.07	-0.167	
8.0	0.0	0.0	0.0	0.0	571.0	-1.051	-0.067	
9.0	0.0	0.0	0.0	0.0	569.0	-1.028	-0.138	
10.0	0.0	0.0	0.0	0.0	568.0	-0.996	-0.023	
11.0	0.0	0.0	0.0	0.0	570.0	-0.957	-0.114	
12.0	0.0	0.0	0.0	0.0	569.0	-0.909	0.0	
13.0	0.0	0.0	0.0	0.0	572.0	-0.851	-0.076	
14.0	0.0	0.0	0.0	0.0	574.0	-0.793	0.006	
15.0	0.0	0.0	0.0	0.0	575.0	-0.735	-0.091	
0.0	0.0	0.0	0.0	0.0	576.0	-0.677	0.038	
1.0	0.0	0.0	0.0	0.0	580.0	-0.619	0.012	
2.0	0.0	0.0	0.0	0.0	580.0	-0.561	0.029	
3.0	0.0	0.0	0.0	0.0	579.0	-0.506	0.021	
4.0	0.0	0.0	0.0	0.0	578.0	-0.464	0.079	
5.0	0.0	0.0	0.0	0.0	576.0	-0.425	0.056	
6.0	0.0	0.0	0.0	0.0	572.0	-0.39	0.144	
7.0	0.0	0.0	0.0	0.0	569.0	-0.358	0.062	
8.0	0.0	0.0	0.0	0.0	567.0	-0.325	0.152	
9.0	0.0	0.0	0.0	0.0	563.0	-0.3	0.126	
10.0	0.0	0.0	0.0	0.0	560.0	-0.274	0.091	
11.0	0.0	0.0	0.0	0.0	556.0	-0.251	0.035	
12.0	0.0	0.0	0.0	0.0	551.0	-0.232	0.023	
13.0	0.0	0.0	0.0	0.0	547.0	-0.216	-0.211	
14.0	0.0	0.0	0.0	0.0	545.0	-0.2	-0.126	
15.0	0.0	0.0	0.0	0.0	543.0	-0.187	-0.258	
0.0	0.0	0.0	0.0	0.0	541.0	-0.177	-0.164	
1.0	0.0	0.0	0.0	0.0	541.0	-0.168	-0.231	
2.0	0.0	0.0	0.0	0.0	541.0	-0.161	-0.138	
3.0	0.0	0.0	0.0	0.0	541.0	-0.155	-0.24	
4.0	0.0	0.0	0.0	0.0	541.0	-0.151	-0.108	
5.0	0.0	0.0	0.0	0.0	541.0	-0.148	0.422	
6.0	0.0	0.0	0.0	0.0	542.0	-0.148	0.674	
7.0	0.0	0.0	0.0	0.0	540.0	-0.148	0.085	
8.0	0.0	0.0	0.0	0.0	541.0	-0.151	-0.237	
9.0	0.0	0.0	0.0	0.0	540.0	-0.155	-0.375	
10.0	0.0	0.0	0.0	0.0	539.0	-0.164	-0.267	
11.0	0.0	0.0	0.0	0.0	536.0	-0.177	-0.328	
12.0	0.0	0.0	0.0	0.0	533.0	-0.193	-0.229	
13.0	0.0	0.0	0.0	0.0	530.0	-0.206	-0.287	
14.0	0.0	0.0	0.0	0.0	527.0	-0.222	-0.199	
15.0	0.0	0.0	0.0	0.0	526.0	-0.238	-0.281	
0.0	0.0	0.0	0.0	0.0	524.0	-0.255	-0.146	
1.0	0.0	0.0	0.0	0.0	523.0	-0.271	-0.214	
2.0	0.0	0.0	0.0	0.0	523.0	-0.287	-0.088	
3.0	0.0	0.0	0.0	0.0	523.0	-0.3	-0.141	
4.0	0.0	0.0	0.0	0.0	522.0	-0.309	-0.047	
5.0	0.0	0.0	0.0	0.0	521.0	-0.319	-0.114	
6.0	0.0	0.0	0.0	0.0	519.0	-0.322	-0.015	
7.0	0.0	0.0	0.0	0.0	518.0	-0.325	-0.12	
8.0	0.0	0.0	0.0	0.0	519.0	-0.325	0.038	
9.0	0.0	0.0	0.0	0.0	518.0	-0.325	-0.026	
10.0	0.0	0.0	0.0	0.0	518.0	-0.329	0.047	
11.0	0.0	0.0	0.0	0.0	516.0	-0.329	0.0	
12.0	0.0	0.0	0.0	0.0	516.0	-0.332	0.059	
13.0	0.0	0.0	0.0	0.0	518.0	-0.329	-0.012	
14.0	0.0	0.0	0.0	0.0	520.0	-0.329	0.05	
15.0	0.0	0.0	0.0	0.0	523.0	-0.332	-0.038	
0.0	0.0	0.0	0.0	0.0	527.0	-0.329	0.023	
1.0	0.0	0.0	0.0	0.0	534.0	-0.329	-0.053	
2.0	0.0	0.0	0.0	0.0	540.0	-0.329	0.003	
3.0	0.0	0.0	0.0	0.0	547.0	-0.325	-0.07	
4.0	0.0	0.0	0.0	0.0	554.0	-0.325	-0.021	
5.0	0.0	0.0	0.0	0.0	561.0	-0.329	-0.129	
6.0	0.0	0.0	0.0	0.0	567.0	-0.332	-0.073	
7.0	0.0	0.0	0.0	0.0	572.0	-0.335	-0.164	
8.0	0.0	0.0	0.0	0.0	575.0	-0.338	-0.111	
9.0	0.0	0.0	0.0	0.0	577.0	-0.348	-0.146	
10.0	0.0	0.0	0.0	0.0	578.0	-0.354	-0.088	
11.0	0.0	0.0	0.0	0.0	577.0	-0.367	-0.155	
12.0	0.0	0.0	0.0	0.0	576.0	-0.38	-0.07	
13.0	0.0	0.0	0.0	0.0	575.0	-0.39	-0.149	
14.0	0.0	0.0	0.0	0.0	574.0	-0.396	-0.073	
15.0	0.0	0.0	0.0	0.0	573.0	-0.4	-0.149	
0.0	0.0	0.0	0.0	0.0	572.0	-0.4	-0.059	
1.0	0.0	0.0	0.0	0.0	569.0	-0.393	-0.126	
2.0	0.0	0.0	0.0	0.0	568.0	-0.383	-0.047	
3.0	0.0	0.0	0.0	0.0	567.0	-0.371	-0.1	
4.0	0.0	0.0	0.0	0.0	567.0	-0.361	-0.015	
5.0	0.0	0.0	0.0	0.0	567.0	-0.348	-0.097	
6.0	0.0	0.0	0.0	0.0	566.0	-0.332	-0.021	
7.0	0.0	0.0	0.0	0.0	563.0	-0.313	-0.097	
8.0	0.0	0.0	0.0	0.0	562.0	-0.296	-0.021	
9.0	0.0	0.0	0.0	0.0	559.0	-0.28	-0.085	
10.0	0.0	0.0	0.0	0.0	557.0	-0.264	0.009	
11.0	0.0	0.0	0.0	0.0	552.0	-0.251	-0.047	
12.0	0.0	0.0	0.0	0.0	548.0	-0.235	0.047	
13.0	0.0	0.0	0.0	0.0	544.0	-0.222	0.023	
14.0	0.0	0.0	0.0	0.0	541.0	-0.213	0.082	
15.0	0.0	0.0	0.0	0.0	537.0	-0.203	-0.029	
0.0	0.0	0.0	0.0	0.0	535.0	-0.197	-0.012	
1.0	0.0	0.0	0.0	0.0	533.0	-0.197	-0.202	
2.0	0.0	0.0	0.0	0.0	532.0	-0.193	-0.173	
3.0	0.0	0.0	0.0	0.0	532.0	-0.19	-0.249	
4.0	0.0	0.0	0.0	0.0	532.0	-0.19	-0.176	
5.0	0.0	0.0	0.0	0.0	532.0	-0.187	-0.287	
6.0	0.0	0.0	0.0	0.0	530.0	-0.187	-0.176	
7.0	0.0	0.0	0.0	0.0	528.0	-0.187	-0.205	
8.0	0.0	0.0	0.0	0.0	526.0	-0.184	-0.149	
9.0	0.0	0.0	0.0	0.0	525.0	-0.18	0.152	
10.0	0.0	0.0	0.0	0.0	523.0	-0.177	0.656	
11.0	0.0	0.0	0.0	0.0	521.0	-0.177	0.372	
12.0	0.0	0.0	0.0	0.0	520.0	-0.174	-0.029	
13.0	0.0	0.0	0.0	0.0	518.0	-0.174	-0.211	
14.0	0.0	0.0	0.0	0.0	516.0	-0.177	-0.205	
15.0	0.0	0.0	0.0	0.0	513.0	-0.177	-0.243	
0.0	0.0	0.0	0.0	0.0	512.0	-0.177	-0.161	
1.0	0.0	0.0	0.0	0.0	511.0	-0.171	-0.226	
2.0	0.0	0.0	0.0	0.0	510.0	-0.168	-0.129	
3.0	0.0	0.0	0.0	0.0	509.0	-0.161	-0.17	
4.0	0.0	0.0	0.0	0.0	508.0	-0.155	-0.097	
5.0	0.0	0.0	0.0	0.0	505.0	-0.145	-0.179	
6.0	0.0	0.0	0.0	0.0	503.0	-0.132	-0.064	
7.0	0.0	0.0	0.0	0.0	500.0	-0.119	-0.114	
8.0	0.0	0.0	0.0	0.0	499.0	-0.106	-0.038	
9.0	0.0	0.0	0.0	0.0	497.0	-0.093	-0.108	
10.0	0.0	0.0	0.0	0.0	497.0	-0.077	-0.018	
11.0	0.0	0.0	0.0	0.0	497.0	-0.064	-0.111	
12.0	0.0	0.0	0.0	0.0	499.0	-0.045	0.006	
13.0	0.0	0.0	0.0	0.0	499.0	-0.029	-0.079	
14.0	0.0	0.0	0.0	0.0	498.0	-0.013	-0.012	
15.0	0.0	0.0	0.0	0.0	499.0	0.01	-0.053	
0.0	0.0	0.0	0.0	0.0	499.0	0.029	0.021	
1.0	0.0	0.0	0.0	0.0	501.0	0.055	-0.047	
2.0	0.0	0.0	0.0	0.0	501.0	0.077	0.05	
3.0	0.0	0.0	0.0	0.0	503.0	0.106	-0.038	
4.0	0.0	0.0	0.0	0.0	506.0	0.129	0.053	
5.0	0.0	0.0	0.0	0.0	510.0	0.151	-0.059	
6.0	0.0	0.0	0.0	0.0	513.0	0.174	0.006	
7.0	0.0	0.0	0.0	0.0	518.0	0.193	-0.076	
8.0	0.0	0.0	0.0	0.0	524.0	0.213	0.021	
9.0	0.0	0.0	0.0	0.0	530.0	0.229	-0.079	
10.0	0.0	0.0	0.0	0.0	536.0	0.248	-0.044	
11.0	0.0	0.0	0.0	0.0	540.0	0.264	-0.094	
12.0	0.0	0.0	0.0	0.0	543.0	0.28	-0.012	
13.0	0.0	0.0	0.0	0.0	546.0	0.296	-0.117	
14.0	0.0	0.0	0.0	0.0	548.0	0.309	-0.018	
15.0	0.0	0.0	0.0	0.0	551.0	0.322	-0.117	
0.0	0.0	0.0	0.0	0.0	551.0	0.335	0.003	
1.0	0.0	0.0	0.0	0.0	552.0	0.345	-0.073	
2.0	0.0	0.0	0.0	0.0	550.0	0.354	-0.015	
3.0	0.0	0.0	0.0	0.0	549.0	0.364	-0.047	
4.0	0.0	0.0	0.0	0.0	547.0	0.371	0.038	
5.0	0.0	0.0	0.0	0.0	544.0	0.38	-0.038	
6.0	0.0	0.0	0.0	0.0	541.0	0.387	0.047	
7.0	0.0	0.0	0.0	0.0	540.0	0.393	-0.026	
8.0	0.0	0.0	0.0	0.0	537.0	0.396	0.018	
9.0	0.0	0.0	0.0	0.0	536.0	0.4	-0.009	
10.0	0.0	0.0	0.0	0.0	536.0	0.403	0.053	
11.0	0.0	0.0	0.0	0.0	535.0	0.406	0.003	
12.0	0.0	0.0	0.0	0.0	535.0	0.403	0.056	
13.0	0.0	0.0	0.0	0.0	533.0	0.403	0.0	
14.0	0.0	0.0	0.0	0.0	531.0	0.403	0.059	
15.0	0.0	0.0	0.0	0.0	528.0	0.403	-0.012	
0.0	0.0	0.0	0.0	0.0	524.0	0.4	0.035	
1.0	0.0	0.0	0.0	0.0	521.0	0.396	-0.009	
2.0	0.0	0.0	0.0	0.0	519.0	0.39	0.07	
3.0	0.0	0.0	0.0	0.0	516.0	0.387	-0.012	
4.0	0.0	0.0	0.0	0.0	513.0	0.377	0.041	
5.0	0.0	0.0	0.0	0.0	512.0	0.374	-0.003	
6.0	0.0	0.0	0.0	0.0	508.0	0.367	0.103	
7.0	0.0	0.0	0.0	0.0	507.0	0.361	0.056	
8.0	0.0	0.0	0.0	0.0	504.0	0.358	0.152	
9.0	0.0	0.0	0.0	0.0	504.0	0.351	0.149	
10.0	0.0	0.0	0.0	0.0	505.0	0.348	0.226	
11.0	0.0	0.0	0.0	0.0	506.0	0.342	0.097	
12.0	0.0	0.0	0.0	0.0	506.0	0.335	0.103	
13.0	0.0	0.0	0.0	0.0	507.0	0.332	-0.082	
14.0	0.0	0.0	0.0	0.0	506.0	0.325	-0.035	
15.0	0.0	0.0	0.0	0.0	505.0	0.319	-0.129	
0.0	0.0	0.0	0.0	0.0	505.0	0.313	-0.064	
1.0	0.0	0.0	0.0	0.0	505.0	0.303	-0.132	
2.0	0.0	0.0	0.0	0.0	505.0	0.296	-0.029	
3.0	0.0	0.0	0.0	0.0	504.0	0.287	-0.149	
4.0	0.0	0.0	0.0	0.0	504.0	0.277	0.0	
5.0	0.0	0.0	0.0	0.0	504.0	0.267	0.384	
6.0	0.0	0.0	0.0	0.0	503.0	0.258	0.732	
7.0	0.0	0.0	0.0	0.0	501.0	0.248	0.261	
8.0	0.0	0.0	0.0	0.0	501.0	0.235	-0.056	
9.0	0.0	0.0	0.0	0.0	502.0	0.226	-0.217	
10.0	0.0	0.0	0.0	0.0	500.0	0.213	-0.123	
11.0	0.0	0.0	0.0	0.0	497.0	0.2	-0.176	
12.0	0.0	0.0	0.0	0.0	496.0	0.19	-0.135	
13.0	0.0	0.0	0.0	0.0	493.0	0.177	-0.158	
14.0	0.0	0.0	0.0	0.0	494.0	0.164	-0.062	
15.0	0.0	0.0	0.0	0.0	492.0	0.151	-0.138	
0.0	0.0	0.0	0.0	0.0	491.0	0.139	-0.032	
1.0	0.0	0.0	0.0	0.0	492.0	0.126	-0.1	
2.0	0.0	0.0	0.0	0.0	493.0	0.11	-0.015	
3.0	0.0	0.0	0.0	0.0	492.0	0.097	-0.085	
4.0	0.0	0.0	0.0	0.0	491.0	0.084	-0.015	
5.0	0.0	0.0	0.0	0.0	490.0	0.071	-0.079	
6.0	0.0	0.0	0.0	0.0	489.0	0.061	-0.009	
7.0	0.0	0.0	0.0	0.0	490.0	0.052	-0.073	
8.0	0.0	0.0	0.0	0.0	489.0	0.048	0.009	
9.0	0.0	0.0	0.0	0.0	487.0	0.042	-0.059	
10.0	0.0	0.0	0.0	0.0	487.0	0.039	0.006	
11.0	0.0	0.0	0.0	0.0	487.0	0.032	-0.082	
12.0	0.0	0.0	0.0	0.0	487.0	0.026	0.006	
13.0	0.0	0.0	0.0	0.0	487.0	0.023	-0.026	
14.0	0.0	0.0	0.0	0.0	489.0	0.016	0.021	
15.0	0.0	0.0	0.0	0.0	493.0	0.01	-0.076	
0.0	0.0	0.0	0.0	0.0	496.0	0.003	-0.012	
1.0	0.0	0.0	0.0	0.0	500.0	-0.006	-0.091	
2.0	0.0	0.0	0.0	0.0	507.0	-0.016	-0.006	
3.0	0.0	0.0	0.0	0.0	512.0	-0.032	-0.088	
4.0	0.0	0.0	0.0	0.0	518.0	-0.042	-0.029	
5.0	0.0	0.0	0.0	0.0	522.0	-0.055	-0.114	
6.0	0.0	0.0	0.0	0.0	527.0	-0.068	-0.067	
7.0	0.0	0.0	0.0	0.0	531.0	-0.081	-0.12	
8.0	0.0	0.0	0.0	0.0	532.0	-0.09	-0.076	
9.0	0.0	0.0	0.0	0.0	534.0	-0.103	-0.144	
10.0	0.0	0.0	0.0	0.0	535.0	-0.113	-0.132	
11.0	0.0	0.0	0.0	0.0	534.0	-0.119	-0.129	
12.0	0.0	0.0	0.0	0.0	533.0	-0.129	-0.07	
13.0	0.0	0.0	0.0	0.0	531.0	-0.135	-0.164	
14.0	0.0	0.0	0.0	0.0	529.0	-0.139	-0.059	
15.0	0.0	0.0	0.0	0.0	529.0	-0.142	-0.105	
0.0	0.0	0.0	0.0	0.0	526.0	-0.145	-0.006	
1.0	0.0	0.0	0.0	0.0	525.0	-0.151	-0.094	
2.0	0.0	0.0	0.0	0.0	525.0	-0.158	-0.003	
3.0	0.0	0.0	0.0	0.0	524.0	-0.161	-0.094	
4.0	0.0	0.0	0.0	0.0	522.0	-0.168	0.029	
5.0	0.0	0.0	0.0	0.0	520.0	-0.177	-0.053	
6.0	0.0	0.0	0.0	0.0	520.0	-0.187	-0.009	
7.0	0.0	0.0	0.0	0.0	516.0	-0.2	-0.105	
8.0	0.0	0.0	0.0	0.0	515.0	-0.209	-0.021	
9.0	0.0	0.0	0.0	0.0	515.0	-0.219	-0.097	
10.0	0.0	0.0	0.0	0.0	515.0	-0.232	-0.006	
11.0	0.0	0.0	0.0	0.0	515.0	-0.242	-0.108	
12.0	0.0	0.0	0.0	0.0	514.0	-0.251	-0.053	
13.0	0.0	0.0	0.0	0.0	512.0	-0.261	-0.067	
14.0	0.0	0.0	0.0	0.0	512.0	-0.271	-0.003	
15.0	0.0	0.0	0.0	0.0	511.0	-0.28	-0.076	
0.0	0.0	0.0	0.0	0.0	510.0	-0.29	-0.012	
1.0	0.0	0.0	0.0	0.0	509.0	-0.3	-0.076	
2.0	0.0	0.0	0.0	0.0	509.0	-0.306	-0.023	
3.0	0.0	0.0	0.0	0.0	508.0	-0.316	-0.059	
4.0	0.0	0.0	0.0	0.0	505.0	-0.322	-0.035	
5.0	0.0	0.0	0.0	0.0	505.0	-0.329	-0.1	
6.0	0.0	0.0	0.0	0.0	503.0	-0.335	-0.009	
7.0	0.0	0.0	0.0	0.0	502.0	-0.342	-0.094	
8.0	0.0	0.0	0.0	0.0	501.0	-0.351	0.018	
9.0	0.0	0.0	0.0	0.0	500.0	-0.358	-0.073	
10.0	0.0	0.0	0.0	0.0	499.0	-0.367	-0.023	
11.0	0.0	0.0	0.0	0.0	499.0	-0.377	-0.103	
12.0	0.0	0.0	0.0	0.0	497.0	-0.39	-0.015	
13.0	0.0	0.0	0.0	0.0	496.0	-0.396	-0.059	
14.0	0.0	0.0	0.0	0.0	496.0	-0.406	-0.021	
15.0	0.0	0.0	0.0	0.0	496.0	-0.416	-0.059	
0.0	0.0	0.0	0.0	0.0	495.0	-0.425	0.003	
1.0	0.0	0.0	0.0	0.0	494.0	-0.435	-0.105	
2.0	0.0	0.0	0.0	0.0	493.0	-0.442	-0.006	
3.0	0.0	0.0	0.0	0.0	491.0	-0.451	-0.07	
4.0	0.0	0.0	0.0	0.0	491.0	-0.454	0.006	
5.0	0.0	0.0	0.0	0.0	490.0	-0.461	-0.047	
6.0	0.0	0.0	0.0	0.0	489.0	-0.467	0.015	
7.0	0.0	0.0	0.0	0.0	488.0	-0.474	-0.073	
8.0	0.0	0.0	0.0	0.0	488.0	-0.477	0.026	
9.0	0.0	0.0	0.0	0.0	489.0	-0.48	0.018	
10.0	0.0	0.0	0.0	0.0	490.0	-0.487	0.12	
11.0	0.0	0.0	0.0	0.0	490.0	-0.493	0.103	
12.0	0.0	0.0	0.0	0.0	490.0	-0.493	0.161	
13.0	0.0	0.0	0.0	0.0	490.0	-0.496	0.044	
14.0	0.0	0.0	0.0	0.0	490.0	-0.493	0.059	
15.0	0.0	0.0	0.0	0.0	490.0	-0.496	-0.12	
0.0	0.0	0.0	0.0	0.0	489.0	-0.493	-0.082	
1.0	0.0	0.0	0.0	0.0	487.0	-0.493	-0.152	
2.0	0.0	0.0	0.0	0.0	487.0	-0.49	-0.105	
3.0	0.0	0.0	0.0	0.0	487.0	-0.487	-0.108	
4.0	0.0	0.0	0.0	0.0	487.0	-0.48	-0.05	
5.0	0.0	0.0	0.0	0.0	486.0	-0.474	-0.158	
6.0	0.0	0.0	0.0	0.0	486.0	-0.467	0.158	
7.0	0.0	0.0	0.0	0.0	486.0	-0.461	0.519	
8.0	0.0	0.0	0.0	0.0	485.0	-0.451	0.601	
9.0	0.0	0.0	0.0	0.0	487.0	-0.445	-0.009	
10.0	0.0	0.0	0.0	0.0	487.0	-0.442	-0.091	
11.0	0.0	0.0	0.0	0.0	486.0	-0.435	-0.199	
12.0	0.0	0.0	0.0	0.0	486.0	-0.432	-0.091	
13.0	0.0	0.0	0.0	0.0	485.0	-0.429	-0.146	
14.0	0.0	0.0	0.0	0.0	486.0	-0.425	-0.062	
15.0	0.0	0.0	0.0	0.0	487.0	-0.425	-0.097	
0.0	0.0	0.0	0.0	0.0	487.0	-0.422	-0.029	
1.0	0.0	0.0	0.0	0.0	487.0	-0.425	-0.085	
2.0	0.0	0.0	0.0	0.0	486.0	-0.429	-0.006	
3.0	0.0	0.0	0.0	0.0	485.0	-0.435	-0.056	
4.0	0.0	0.0	0.0	0.0	484.0	-0.445	0.015	
5.0	0.0	0.0	0.0	0.0	483.0	-0.454	-0.029	
6.0	0.0	0.0	0.0	0.0	482.0	-0.467	0.047	
7.0	0.0	0.0	0.0	0.0	481.0	-0.483	-0.026	
8.0	0.0	0.0	0.0	0.0	480.0	-0.5	0.035	
9.0	0.0	0.0	0.0	0.0	481.0	-0.516	-0.009	
10.0	0.0	0.0	0.0	0.0	482.0	-0.532	0.07	
11.0	0.0	0.0	0.0	0.0	484.0	-0.548	0.012	
12.0	0.0	0.0	0.0	0.0	485.0	-0.564	0.091	
13.0	0.0	0.0	0.0	0.0	485.0	-0.577	0.026	
14.0	0.0	0.0	0.0	0.0	486.0	-0.593	0.103	
15.0	0.0	0.0	0.0	0.0	487.0	-0.603	0.035	
0.0	0.0	0.0	0.0	0.0	488.0	-0.616	0.103	
1.0	0.0	0.0	0.0	0.0	489.0	-0.622	0.023	
2.0	0.0	0.0	0.0	0.0	491.0	-0.632	0.097	
3.0	0.0	0.0	0.0	0.0	494.0	-0.638	0.012	
4.0	0.0	0.0	0.0	0.0	496.0	-0.641	0.076	
5.0	0.0	0.0	0.0	0.0	499.0	-0.641	0.003	
6.0	0.0	0.0	0.0	0.0	501.0	-0.645	0.088	
7.0	0.0	0.0	0.0	0.0	504.0	-0.638	0.012	
8.0	0.0	0.0	0.0	0.0	506.0	-0.635	0.079	
9.0	0.0	0.0	0.0	0.0	508.0	-0.628	0.006	
10.0	0.0	0.0	0.0	0.0	510.0	-0.619	0.056	
11.0	0.0	0.0	0.0	0.0	511.0	-0.606	-0.003	
12.0	0.0	0.0	0.0	0.0	512.0	-0.59	0.07	
13.0	0.0	0.0	0.0	0.0	512.0	-0.574	0.018	
14.0	0.0	0.0	0.0	0.0	513.0	-0.558	0.094	
15.0	0.0	0.0	0.0	0.0	513.0	-0.538	0.05	
0.0	0.0	0.0	0.0	0.0	512.0	-0.516	0.138	
1.0	0.0	0.0	0.0	0.0	510.0	-0.496	0.097	
2.0	0.0	0.0	0.0	0.0	508.0	-0.474	0.173	
3.0	0.0	0.0	0.0	0.0	508.0	-0.451	0.111	
4.0	0.0	0.0	0.0	0.0	509.0	-0.425	0.188	
5.0	0.0	0.0	0.0	0.0	509.0	-0.4	0.126	
6.0	0.0	0.0	0.0	0.0	510.0	-0.377	0.199	
7.0	0.0	0.0	0.0	0.0	511.0	-0.351	0.135	
8.0	0.0	0.0	0.0	0.0	510.0	-0.329	0.17	
9.0	0.0	0.0	0.0	0.0	511.0	-0.303	0.152	
10.0	0.0	0.0	0.0	0.0	512.0	-0.28	0.202	
11.0	0.0	0.0	0.0	0.0	512.0	-0.255	0.117	
12.0	0.0	0.0	0.0	0.0	512.0	-0.232	0.188	
13.0	0.0	0.0	0.0	0.0	511.0	-0.213	0.126	
14.0	0.0	0.0	0.0	0.0	509.0	-0.19	0.19	
15.0	0.0	0.0	0.0	0.0	507.0	-0.171	0.138	
0.0	0.0	0.0	0.0	0.0	504.0	-0.151	0.196	
1.0	0.0	0.0	0.0	0.0	503.0	-0.135	0.146	
2.0	0.0	0.0	0.0	0.0	502.0	-0.116	0.211	
3.0	0.0	0.0	0.0	0.0	501.0	-0.103	0.161	
4.0	0.0	0.0	0.0	0.0	501.0	-0.087	0.211	
5.0	0.0	0.0	0.0	0.0	499.0	-0.074	0.149	
6.0	0.0	0.0	0.0	0.0	499.0	-0.058	0.214	
7.0	0.0	0.0	0.0	0.0	498.0	-0.048	0.161	
8.0	0.0	0.0	0.0	0.0	499.0	-0.035	0.223	
9.0	0.0	0.0	0.0	0.0	500.0	-0.026	0.161	
10.0	0.0	0.0	0.0	0.0	500.0	-0.013	0.208	
11.0	0.0	0.0	0.0	0.0	500.0	-0.003	0.196	
12.0	0.0	0.0	0.0	0.0	502.0	0.003	0.255	
13.0	0.0	0.0	0.0	0.0	502.0	0.013	0.17	
14.0	0.0	0.0	0.0	0.0	503.0	0.019	0.229	
15.0	0.0	0.0	0.0	0.0	502.0	0.026	0.193	
0.0	0.0	0.0	0.0	0.0	500.0	0.035	0.243	
1.0	0.0	0.0	0.0	0.0	500.0	0.042	0.193	
2.0	0.0	0.0	0.0	0.0	499.0	0.048	0.249	
3.0	0.0	0.0	0.0	0.0	499.0	0.052	0.188	
4.0	0.0	0.0	0.0	0.0	498.0	0.058	0.255	
5.0	0.0	0.0	0.0	0.0	498.0	0.064	0.149	
6.0	0.0	0.0	0.0	0.0	497.0	0.071	0.249	
7.0	0.0	0.0	0.0	0.0	495.0	0.077	0.19	
8.0	0.0	0.0	0.0	0.0	494.0	0.084	0.243	
9.0	0.0	0.0	0.0	0.0	492.0	0.09	0.185	
10.0	0.0	0.0	0.0	0.0	492.0	0.093	0.246	
11.0	0.0	0.0	0.0	0.0	493.0	0.1	0.179	
12.0	0.0	0.0	0.0	0.0	496.0	0.106	0.234	
13.0	0.0	0.0	0.0	0.0	497.0	0.113	0.237	
14.0	0.0	0.0	0.0	0.0	497.0	0.116	0.299	
15.0	0.0	0.0	0.0	0.0	498.0	0.122	0.255	
0.0	0.0	0.0	0.0	0.0	499.0	0.129	0.328	
1.0	0.0	0.0	0.0	0.0	500.0	0.132	0.205	
2.0	0.0	0.0	0.0	0.0	500.0	0.139	0.255	
3.0	0.0	0.0	0.0	0.0	500.0	0.142	0.108	
4.0	0.0	0.0	0.0	0.0	498.0	0.145	0.085	
5.0	0.0	0.0	0.0	0.0	496.0	0.148	0.015	
6.0	0.0	0.0	0.0	0.0	497.0	0.148	0.035	
7.0	0.0	0.0	0.0	0.0	495.0	0.151	0.026	
8.0	0.0	0.0	0.0	0.0	494.0	0.155	0.064	
9.0	0.0	0.0	0.0	0.0	494.0	0.158	0.0	
10.0	0.0	0.0	0.0	0.0	493.0	0.161	0.114	
11.0	0.0	0.0	0.0	0.0	494.0	0.164	0.489	
12.0	0.0	0.0	0.0	0.0	493.0	0.171	0.791	
13.0	0.0	0.0	0.0	0.0	492.0	0.174	0.331	
14.0	0.0	0.0	0.0	0.0	492.0	0.18	0.018	
15.0	0.0	0.0	0.0	0.0	492.0	0.184	-0.117	
0.0	0.0	0.0	0.0	0.0	492.0	0.19	-0.073	
1.0	0.0	0.0	0.0	0.0	492.0	0.193	-0.097	
2.0	0.0	0.0	0.0	0.0	492.0	0.197	-0.044	
3.0	0.0	0.0	0.0	0.0	491.0	0.2	-0.073	
4.0	0.0	0.0	0.0	0.0	491.0	0.206	-0.029	
5.0	0.0	0.0	0.0	0.0	491.0	0.209	-0.073	
6.0	0.0	0.0	0.0	0.0	491.0	0.216	-0.023	
7.0	0.0	0.0	0.0	0.0	492.0	0.219	-0.041	
8.0	0.0	0.0	0.0	0.0	492.0	0.222	-0.018	
9.0	0.0	0.0	0.0	0.0	494.0	0.226	-0.012	
10.0	0.0	0.0	0.0	0.0	496.0	0.226	0.018	
11.0	0.0	0.0	0.0	0.0	496.0	0.226	0.003	
12.0	0.0	0.0	0.0	0.0	495.0	0.222	0.085	
13.0	0.0	0.0	0.0	0.0	494.0	0.216	0.018	
14.0	0.0	0.0	0.0	0.0	495.0	0.209	0.064	
15.0	0.0	0.0	0.0	0.0	492.0	0.2	0.047	
0.0	0.0	0.0	0.0	0.0	489.0	0.184	0.067	
1.0	0.0	0.0	0.0	0.0	487.0	0.171	0.044	
2.0	0.0	0.0	0.0	0.0	487.0	0.158	0.091	
3.0	0.0	0.0	0.0	0.0	488.0	0.142	0.023	
4.0	0.0	0.0	0.0	0.0	489.0	0.129	0.085	
5.0	0.0	0.0	0.0	0.0	492.0	0.119	0.006	
6.0	0.0	0.0	0.0	0.0	494.0	0.106	0.059	
7.0	0.0	0.0	0.0	0.0	496.0	0.097	-0.021	
8.0	0.0	0.0	0.0	0.0	498.0	0.09	0.009	
9.0	0.0	0.0	0.0	0.0	500.0	0.081	-0.082	
10.0	0.0	0.0	0.0	0.0	503.0	0.071	0.021	
11.0	0.0	0.0	0.0	0.0	505.0	0.061	-0.062	
12.0	0.0	0.0	0.0	0.0	508.0	0.052	-0.044	
13.0	0.0	0.0	0.0	0.0	510.0	0.039	-0.064	
14.0	0.0	0.0	0.0	0.0	512.0	0.026	-0.026	
15.0	0.0	0.0	0.0	0.0	516.0	0.013	-0.094	
0.0	0.0	0.0	0.0	0.0	516.0	0.0	-0.05	
1.0	0.0	0.0	0.0	0.0	516.0	-0.013	-0.114	
2.0	0.0	0.0	0.0	0.0	515.0	-0.026	-0.044	
3.0	0.0	0.0	0.0	0.0	516.0	-0.042	-0.091	
4.0	0.0	0.0	0.0	0.0	516.0	-0.052	-0.026	
5.0	0.0	0.0	0.0	0.0	515.0	-0.064	-0.085	
6.0	0.0	0.0	0.0	0.0	514.0	-0.074	0.029	
7.0	0.0	0.0	0.0	0.0	512.0	-0.081	-0.044	
8.0	0.0	0.0	0.0	0.0	512.0	-0.09	0.018	
9.0	0.0	0.0	0.0	0.0	510.0	-0.097	-0.026	
10.0	0.0	0.0	0.0	0.0	508.0	-0.1	0.018	
11.0	0.0	0.0	0.0	0.0	509.0	-0.103	-0.038	
12.0	0.0	0.0	0.0	0.0	508.0	-0.106	0.059	
13.0	0.0	0.0	0.0	0.0	508.0	-0.11	-0.059	
14.0	0.0	0.0	0.0	0.0	509.0	-0.113	0.05	
15.0	0.0	0.0	0.0	0.0	510.0	-0.116	-0.041	
0.0	0.0	0.0	0.0	0.0	510.0	-0.119	0.038	
1.0	0.0	0.0	0.0	0.0	510.0	-0.122	-0.05	
2.0	0.0	0.0	0.0	0.0	510.0	-0.126	0.0	
3.0	0.0	0.0	0.0	0.0	510.0	-0.129	-0.085	
4.0	0.0	0.0	0.0	0.0	510.0	-0.129	0.035	
5.0	0.0	0.0	0.0	0.0	510.0	-0.132	-0.073	
6.0	0.0	0.0	0.0	0.0	510.0	-0.135	-0.003	
7.0	0.0	0.0	0.0	0.0	510.0	-0.142	-0.026	
8.0	0.0	0.0	0.0	0.0	511.0	-0.145	0.0	
9.0	0.0	0.0	0.0	0.0	510.0	-0.148	-0.073	
10.0	0.0	0.0	0.0	0.0	508.0	-0.151	0.021	
11.0	0.0	0.0	0.0	0.0	508.0	-0.158	-0.047	
12.0	0.0	0.0	0.0	0.0	507.0	-0.158	0.0	
13.0	0.0	0.0	0.0	0.0	506.0	-0.161	-0.079	
14.0	0.0	0.0	0.0	0.0	507.0	-0.164	-0.006	
15.0	0.0	0.0	0.0	0.0	506.0	-0.168	-0.085	
0.0	0.0	0.0	0.0	0.0	507.0	-0.171	-0.035	
1.0	0.0	0.0	0.0	0.0	508.0	-0.177	-0.076	
2.0	0.0	0.0	0.0	0.0	508.0	-0.184	-0.021	
3.0	0.0	0.0	0.0	0.0	509.0	-0.187	-0.044	
4.0	0.0	0.0	0.0	0.0	508.0	-0.197	-0.003	
5.0	0.0	0.0	0.0	0.0	508.0	-0.203	-0.064	
6.0	0.0	0.0	0.0	0.0	508.0	-0.209	-0.015	
7.0	0.0	0.0	0.0	0.0	508.0	-0.216	-0.047	
8.0	0.0	0.0	0.0	0.0	506.0	-0.222	0.026	
9.0	0.0	0.0	0.0	0.0	506.0	-0.226	-0.026	
10.0	0.0	0.0	0.0	0.0	505.0	-0.232	0.041	
11.0	0.0	0.0	0.0	0.0	505.0	-0.235	-0.067	
12.0	0.0	0.0	0.0	0.0	505.0	-0.242	0.053	
13.0	0.0	0.0	0.0	0.0	505.0	-0.248	-0.021	
14.0	0.0	0.0	0.0	0.0	505.0	-0.255	0.006	
15.0	0.0	0.0	0.0	0.0	505.0	-0.264	-0.05	
0.0	0.0	0.0	0.0	0.0	504.0	-0.277	0.023	
1.0	0.0	0.0	0.0	0.0	504.0	-0.287	-0.064	
2.0	0.0	0.0	0.0	0.0	503.0	-0.3	-0.023	
3.0	0.0	0.0	0.0	0.0	500.0	-0.313	-0.094	
4.0	0.0	0.0	0.0	0.0	499.0	-0.322	-0.003	
5.0	0.0	0.0	0.0	0.0	499.0	-0.332	-0.056	
6.0	0.0	0.0	0.0	0.0	499.0	-0.338	0.012	
7.0	0.0	0.0	0.0	0.0	498.0	-0.345	-0.038	
8.0	0.0	0.0	0.0	0.0	499.0	-0.354	0.085	
9.0	0.0	0.0	0.0	0.0	499.0	-0.361	0.021	
10.0	0.0	0.0	0.0	0.0	498.0	-0.367	0.138	
11.0	0.0	0.0	0.0	0.0	499.0	-0.371	0.026	
12.0	0.0	0.0	0.0	0.0	498.0	-0.377	0.076	
13.0	0.0	0.0	0.0	0.0	499.0	-0.383	-0.076	
14.0	0.0	0.0	0.0	0.0	500.0	-0.39	-0.076	
15.0	0.0	0.0	0.0	0.0	499.0	-0.396	-0.176	
0.0	0.0	0.0	0.0	0.0	500.0	-0.403	-0.105	
1.0	0.0	0.0	0.0	0.0	500.0	-0.409	-0.135	
2.0	0.0	0.0	0.0	0.0	500.0	-0.413	-0.079	
3.0	0.0	0.0	0.0	0.0	498.0	-0.413	-0.149	
4.0	0.0	0.0	0.0	0.0	499.0	-0.409	0.0	
5.0	0.0	0.0	0.0	0.0	500.0	-0.406	0.366	
6.0	0.0	0.0	0.0	0.0	499.0	-0.396	0.636	
7.0	0.0	0.0	0.0	0.0	500.0	-0.383	0.135	
8.0	0.0	0.0	0.0	0.0	499.0	-0.364	-0.097	
9.0	0.0	0.0	0.0	0.0	496.0	-0.345	-0.22	
10.0	0.0	0.0	0.0	0.0	496.0	-0.322	-0.141	
11.0	0.0	0.0	0.0	0.0	496.0	-0.3	-0.17	
12.0	0.0	0.0	0.0	0.0	497.0	-0.271	-0.097	
13.0	0.0	0.0	0.0	0.0	499.0	-0.242	-0.144	
14.0	0.0	0.0	0.0	0.0	500.0	-0.213	-0.059	
15.0	0.0	0.0	0.0	0.0	502.0	-0.187	-0.1	
0.0	0.0	0.0	0.0	0.0	503.0	-0.158	-0.044	
1.0	0.0	0.0	0.0	0.0	503.0	-0.135	-0.073	
2.0	0.0	0.0	0.0	0.0	502.0	-0.11	0.0	
3.0	0.0	0.0	0.0	0.0	504.0	-0.084	-0.035	
4.0	0.0	0.0	0.0	0.0	504.0	-0.064	0.015	
5.0	0.0	0.0	0.0	0.0	505.0	-0.045	-0.021	
6.0	0.0	0.0	0.0	0.0	505.0	-0.026	0.035	
7.0	0.0	0.0	0.0	0.0	503.0	-0.013	-0.012	
8.0	0.0	0.0	0.0	0.0	501.0	-0.003	0.038	
9.0	0.0	0.0	0.0	0.0	498.0	0.003	0.0	
10.0	0.0	0.0	0.0	0.0	497.0	0.01	0.053	
11.0	0.0	0.0	0.0	0.0	497.0	0.01	0.003	
12.0	0.0	0.0	0.0	0.0	496.0	0.006	0.064	
13.0	0.0	0.0	0.0	0.0	496.0	-0.003	0.021	
14.0	0.0	0.0	0.0	0.0	496.0	-0.016	0.067	
15.0	0.0	0.0	0.0	0.0	496.0	-0.035	0.006	
0.0	0.0	0.0	0.0	0.0	496.0	-0.058	0.044	
1.0	0.0	0.0	0.0	0.0	496.0	-0.081	-0.035	
2.0	0.0	0.0	0.0	0.0	496.0	-0.097	0.003	
3.0	0.0	0.0	0.0	0.0	498.0	-0.113	-0.07	
4.0	0.0	0.0	0.0	0.0	499.0	-0.129	-0.021	
5.0	0.0	0.0	0.0	0.0	500.0	-0.139	-0.082	
6.0	0.0	0.0	0.0	0.0	503.0	-0.151	-0.035	
7.0	0.0	0.0	0.0	0.0	506.0	-0.161	-0.1	
8.0	0.0	0.0	0.0	0.0	510.0	-0.171	-0.062	
9.0	0.0	0.0	0.0	0.0	512.0	-0.174	-0.12	
10.0	0.0	0.0	0.0	0.0	515.0	-0.171	-0.085	
11.0	0.0	0.0	0.0	0.0	516.0	-0.168	-0.103	
12.0	0.0	0.0	0.0	0.0	519.0	-0.158	-0.05	
13.0	0.0	0.0	0.0	0.0	519.0	-0.145	-0.082	
14.0	0.0	0.0	0.0	0.0	519.0	-0.126	-0.009	
15.0	0.0	0.0	0.0	0.0	518.0	-0.103	-0.053	
0.0	0.0	0.0	0.0	0.0	517.0	-0.081	0.018	
1.0	0.0	0.0	0.0	0.0	515.0	-0.055	-0.021	
2.0	0.0	0.0	0.0	0.0	515.0	-0.026	0.079	
3.0	0.0	0.0	0.0	0.0	516.0	0.0	0.015	
4.0	0.0	0.0	0.0	0.0	515.0	0.032	0.088	
5.0	0.0	0.0	0.0	0.0	516.0	0.061	0.026	
6.0	0.0	0.0	0.0	0.0	516.0	0.093	0.091	
7.0	0.0	0.0	0.0	0.0	516.0	0.122	0.029	
8.0	0.0	0.0	0.0	0.0	516.0	0.155	0.079	
9.0	0.0	0.0	0.0	0.0	518.0	0.184	0.035	
10.0	0.0	0.0	0.0	0.0	518.0	0.213	0.091	
11.0	0.0	0.0	0.0	0.0	518.0	0.242	0.038	
12.0	0.0	0.0	0.0	0.0	518.0	0.271	0.091	
13.0	0.0	0.0	0.0	0.0	519.0	0.296	0.035	
14.0	0.0	0.0	0.0	0.0	519.0	0.325	0.1	
15.0	0.0	0.0	0.0	0.0	518.0	0.351	0.023	
0.0	0.0	0.0	0.0	0.0	516.0	0.377	0.108	
1.0	0.0	0.0	0.0	0.0	515.0	0.406	0.023	
2.0	0.0	0.0	0.0	0.0	514.0	0.429	0.091	
3.0	0.0	0.0	0.0	0.0	513.0	0.451	0.044	
4.0	0.0	0.0	0.0	0.0	513.0	0.471	0.079	
5.0	0.0	0.0	0.0	0.0	512.0	0.49	0.029	
6.0	0.0	0.0	0.0	0.0	510.0	0.509	0.094	
7.0	0.0	0.0	0.0	0.0	508.0	0.529	0.032	
8.0	0.0	0.0	0.0	0.0	508.0	0.545	0.082	
9.0	0.0	0.0	0.0	0.0	509.0	0.564	0.023	
10.0	0.0	0.0	0.0	0.0	508.0	0.577	0.067	
11.0	0.0	0.0	0.0	0.0	508.0	0.596	0.023	
12.0	0.0	0.0	0.0	0.0	508.0	0.612	0.082	
13.0	0.0	0.0	0.0	0.0	509.0	0.632	0.021	
14.0	0.0	0.0	0.0	0.0	508.0	0.648	0.082	
15.0	0.0	0.0	0.0	0.0	507.0	0.667	0.012	
0.0	0.0	0.0	0.0	0.0	507.0	0.683	0.07	
1.0	0.0	0.0	0.0	0.0	506.0	0.699	0.015	
2.0	0.0	0.0	0.0	0.0	506.0	0.715	0.067	
3.0	0.0	0.0	0.0	0.0	506.0	0.732	0.012	
4.0	0.0	0.0	0.0	0.0	507.0	0.744	0.064	
5.0	0.0	0.0	0.0	0.0	507.0	0.761	0.026	
6.0	0.0	0.0	0.0	0.0	506.0	0.773	0.07	
7.0	0.0	0.0	0.0	0.0	505.0	0.79	0.003	
8.0	0.0	0.0	0.0	0.0	506.0	0.802	0.07	
9.0	0.0	0.0	0.0	0.0	507.0	0.815	0.006	
10.0	0.0	0.0	0.0	0.0	507.0	0.828	0.07	
11.0	0.0	0.0	0.0	0.0	507.0	0.838	0.009	
12.0	0.0	0.0	0.0	0.0	505.0	0.844	0.085	
13.0	0.0	0.0	0.0	0.0	504.0	0.851	0.021	
14.0	0.0	0.0	0.0	0.0	504.0	0.854	0.132	
15.0	0.0	0.0	0.0	0.0	503.0	0.857	0.085	
0.0	0.0	0.0	0.0	0.0	504.0	0.86	0.152	
1.0	0.0	0.0	0.0	0.0	505.0	0.857	0.167	
2.0	0.0	0.0	0.0	0.0	506.0	0.857	0.182	
3.0	0.0	0.0	0.0	0.0	508.0	0.851	0.085	
4.0	0.0	0.0	0.0	0.0	509.0	0.848	0.044	
5.0	0.0	0.0	0.0	0.0	510.0	0.841	-0.085	
6.0	0.0	0.0	0.0	0.0	511.0	0.831	-0.047	
7.0	0.0	0.0	0.0	0.0	510.0	0.822	-0.103	
8.0	0.0	0.0	0.0	0.0	509.0	0.809	-0.053	
9.0	0.0	0.0	0.0	0.0	508.0	0.799	-0.105	
10.0	0.0	0.0	0.0	0.0	506.0	0.783	-0.062	
11.0	0.0	0.0	0.0	0.0	506.0	0.773	-0.038	
12.0	0.0	0.0	0.0	0.0	506.0	0.761	0.489	
13.0	0.0	0.0	0.0	0.0	505.0	0.748	0.636	
14.0	0.0	0.0	0.0	0.0	505.0	0.735	0.223	
15.0	0.0	0.0	0.0	0.0	504.0	0.722	-0.135	
0.0	0.0	0.0	0.0	0.0	503.0	0.706	-0.167	
1.0	0.0	0.0	0.0	0.0	504.0	0.69	-0.217	
2.0	0.0	0.0	0.0	0.0	503.0	0.67	-0.146	
3.0	0.0	0.0	0.0	0.0	501.0	0.657	-0.179	
4.0	0.0	0.0	0.0	0.0	501.0	0.641	-0.12	
5.0	0.0	0.0	0.0	0.0	500.0	0.628	-0.199	
6.0	0.0	0.0	0.0	0.0	499.0	0.616	-0.12	
7.0	0.0	0.0	0.0	0.0	500.0	0.603	-0.123	
8.0	0.0	0.0	0.0	0.0	500.0	0.593	-0.062	
9.0	0.0	0.0	0.0	0.0	501.0	0.58	-0.114	
10.0	0.0	0.0	0.0	0.0	502.0	0.564	-0.064	
11.0	0.0	0.0	0.0	0.0	502.0	0.551	-0.105	
12.0	0.0	0.0	0.0	0.0	502.0	0.535	-0.044	
13.0	0.0	0.0	0.0	0.0	502.0	0.519	-0.105	
14.0	0.0	0.0	0.0	0.0	503.0	0.503	-0.044	
15.0	0.0	0.0	0.0	0.0	504.0	0.49	-0.062	
0.0	0.0	0.0	0.0	0.0	504.0	0.477	-0.009	
1.0	0.0	0.0	0.0	0.0	504.0	0.467	-0.056	
2.0	0.0	0.0	0.0	0.0	504.0	0.458	-0.003	
3.0	0.0	0.0	0.0	0.0	504.0	0.442	-0.015	
4.0	0.0	0.0	0.0	0.0	503.0	0.429	0.044	
5.0	0.0	0.0	0.0	0.0	502.0	0.413	-0.044	
6.0	0.0	0.0	0.0	0.0	502.0	0.4	0.026	
7.0	0.0	0.0	0.0	0.0	504.0	0.387	-0.035	
8.0	0.0	0.0	0.0	0.0	504.0	0.371	-0.047	
9.0	0.0	0.0	0.0	0.0	505.0	0.358	-0.064	
10.0	0.0	0.0	0.0	0.0	507.0	0.342	-0.026	
11.0	0.0	0.0	0.0	0.0	508.0	0.325	-0.117	
12.0	0.0	0.0	0.0	0.0	511.0	0.309	-0.053	
13.0	0.0	0.0	0.0	0.0	509.0	0.29	-0.12	
14.0	0.0	0.0	0.0	0.0	511.0	0.271	-0.082	
15.0	0.0	0.0	0.0	0.0	510.0	0.251	-0.146	
0.0	0.0	0.0	0.0	0.0	512.0	0.229	-0.085	
1.0	0.0	0.0	0.0	0.0	511.0	0.206	-0.164	
2.0	0.0	0.0	0.0	0.0	514.0	0.18	-0.105	
3.0	0.0	0.0	0.0	0.0	515.0	0.155	-0.149	
4.0	0.0	0.0	0.0	0.0	519.0	0.126	-0.067	
5.0	0.0	0.0	0.0	0.0	521.0	0.1	-0.097	
6.0	0.0	0.0	0.0	0.0	523.0	0.071	-0.053	
7.0	0.0	0.0	0.0	0.0	523.0	0.045	-0.079	
8.0	0.0	0.0	0.0	0.0	523.0	0.019	-0.003	
9.0	0.0	0.0	0.0	0.0	523.0	-0.003	-0.05	
10.0	0.0	0.0	0.0	0.0	523.0	-0.026	-0.035	
11.0	0.0	0.0	0.0	0.0	524.0	-0.048	-0.035	
12.0	0.0	0.0	0.0	0.0	526.0	-0.068	0.044	
13.0	0.0	0.0	0.0	0.0	528.0	-0.09	-0.035	
14.0	0.0	0.0	0.0	0.0	530.0	-0.11	0.044	
15.0	0.0	0.0	0.0	0.0	529.0	-0.129	-0.006	
0.0	0.0	0.0	0.0	0.0	531.0	-0.145	0.038	
1.0	0.0	0.0	0.0	0.0	529.0	-0.164	-0.026	
2.0	0.0	0.0	0.0	0.0	528.0	-0.184	0.038	
3.0	0.0	0.0	0.0	0.0	527.0	-0.209	-0.047	
4.0	0.0	0.0	0.0	0.0	526.0	-0.232	0.012	
5.0	0.0	0.0	0.0	0.0	523.0	-0.255	-0.038	
6.0	0.0	0.0	0.0	0.0	521.0	-0.28	0.015	
7.0	0.0	0.0	0.0	0.0	521.0	-0.3	-0.047	
8.0	0.0	0.0	0.0	0.0	519.0	-0.322	0.032	
9.0	0.0	0.0	0.0	0.0	518.0	-0.342	-0.009	
10.0	0.0	0.0	0.0	0.0	518.0	-0.358	0.056	
11.0	0.0	0.0	0.0	0.0	517.0	-0.374	0.015	
12.0	0.0	0.0	0.0	0.0	516.0	-0.39	0.05	
13.0	0.0	0.0	0.0	0.0	517.0	-0.4	0.0	
14.0	0.0	0.0	0.0	0.0	519.0	-0.409	0.021	
15.0	0.0	0.0	0.0	0.0	518.0	-0.419	-0.032	
0.0	0.0	0.0	0.0	0.0	519.0	-0.429	0.05	
1.0	0.0	0.0	0.0	0.0	519.0	-0.438	-0.015	
2.0	0.0	0.0	0.0	0.0	520.0	-0.445	0.0	
3.0	0.0	0.0	0.0	0.0	520.0	-0.451	-0.012	
4.0	0.0	0.0	0.0	0.0	521.0	-0.458	0.021	
5.0	0.0	0.0	0.0	0.0	520.0	-0.467	-0.032	
6.0	0.0	0.0	0.0	0.0	521.0	-0.474	0.012	
7.0	0.0	0.0	0.0	0.0	521.0	-0.48	-0.023	
8.0	0.0	0.0	0.0	0.0	521.0	-0.487	0.026	
9.0	0.0	0.0	0.0	0.0	521.0	-0.49	-0.047	
10.0	0.0	0.0	0.0	0.0	521.0	-0.496	0.021	
11.0	0.0	0.0	0.0	0.0	519.0	-0.503	-0.062	
12.0	0.0	0.0	0.0	0.0	517.0	-0.509	0.029	
13.0	0.0	0.0	0.0	0.0	515.0	-0.516	-0.023	
14.0	0.0	0.0	0.0	0.0	513.0	-0.522	0.026	
15.0	0.0	0.0	0.0	0.0	513.0	-0.529	-0.003	
0.0	0.0	0.0	0.0	0.0	511.0	-0.538	0.038	
1.0	0.0	0.0	0.0	0.0	509.0	-0.545	-0.035	
2.0	0.0	0.0	0.0	0.0	509.0	-0.554	0.038	
3.0	0.0	0.0	0.0	0.0	511.0	-0.561	0.015	
4.0	0.0	0.0	0.0	0.0	511.0	-0.567	0.067	
5.0	0.0	0.0	0.0	0.0	511.0	-0.577	0.015	
6.0	0.0	0.0	0.0	0.0	512.0	-0.583	0.056	
7.0	0.0	0.0	0.0	0.0	513.0	-0.593	-0.006	
8.0	0.0	0.0	0.0	0.0	513.0	-0.596	0.056	
9.0	0.0	0.0	0.0	0.0	515.0	-0.606	0.0	
10.0	0.0	0.0	0.0	0.0	515.0	-0.612	0.029	
11.0	0.0	0.0	0.0	0.0	514.0	-0.619	0.006	
12.0	0.0	0.0	0.0	0.0	514.0	-0.625	0.076	
13.0	0.0	0.0	0.0	0.0	513.0	-0.628	0.047	
14.0	0.0	0.0	0.0	0.0	511.0	-0.635	0.141	
15.0	0.0	0.0	0.0	0.0	510.0	-0.635	0.111	
0.0	0.0	0.0	0.0	0.0	510.0	-0.641	0.135	
1.0	0.0	0.0	0.0	0.0	510.0	-0.645	0.073	
2.0	0.0	0.0	0.0	0.0	509.0	-0.648	0.021	
3.0	0.0	0.0	0.0	0.0	509.0	-0.651	-0.085	
4.0	0.0	0.0	0.0	0.0	508.0	-0.654	-0.041	
5.0	0.0	0.0	0.0	0.0	507.0	-0.657	-0.088	
6.0	0.0	0.0	0.0	0.0	508.0	-0.661	-0.038	
7.0	0.0	0.0	0.0	0.0	509.0	-0.661	-0.085	
8.0	0.0	0.0	0.0	0.0	510.0	-0.661	-0.082	
9.0	0.0	0.0	0.0	0.0	512.0	-0.661	-0.026	
10.0	0.0	0.0	0.0	0.0	513.0	-0.661	0.466	
11.0	0.0	0.0	0.0	0.0	513.0	-0.661	0.601	
12.0	0.0	0.0	0.0	0.0	513.0	-0.661	0.205	
13.0	0.0	0.0	0.0	0.0	513.0	-0.661	-0.182	
14.0	0.0	0.0	0.0	0.0	512.0	-0.664	-0.193	
15.0	0.0	0.0	0.0	0.0	511.0	-0.661	-0.182	
0.0	0.0	0.0	0.0	0.0	510.0	-0.667	-0.123	
1.0	0.0	0.0	0.0	0.0	510.0	-0.667	-0.152	
2.0	0.0	0.0	0.0	0.0	509.0	-0.664	-0.076	
3.0	0.0	0.0	0.0	0.0	509.0	-0.664	-0.111	
4.0	0.0	0.0	0.0	0.0	510.0	-0.664	-0.056	
5.0	0.0	0.0	0.0	0.0	509.0	-0.661	-0.105	
6.0	0.0	0.0	0.0	0.0	509.0	-0.664	-0.026	
7.0	0.0	0.0	0.0	0.0	508.0	-0.661	-0.064	
8.0	0.0	0.0	0.0	0.0	507.0	-0.664	-0.035	
9.0	0.0	0.0	0.0	0.0	507.0	-0.664	-0.067	
10.0	0.0	0.0	0.0	0.0	506.0	-0.664	-0.021	
11.0	0.0	0.0	0.0	0.0	506.0	-0.667	-0.07	
12.0	0.0	0.0	0.0	0.0	505.0	-0.664	-0.047	
13.0	0.0	0.0	0.0	0.0	504.0	-0.667	-0.062	
14.0	0.0	0.0	0.0	0.0	505.0	-0.667	-0.023	
15.0	0.0	0.0	0.0	0.0	505.0	-0.667	-0.062	
0.0	0.0	0.0	0.0	0.0	505.0	-0.664	-0.003	
1.0	0.0	0.0	0.0	0.0	503.0	-0.667	-0.044	
2.0	0.0	0.0	0.0	0.0	504.0	-0.664	0.018	
3.0	0.0	0.0	0.0	0.0	504.0	-0.661	-0.032	
4.0	0.0	0.0	0.0	0.0	504.0	-0.654	0.009	
5.0	0.0	0.0	0.0	0.0	504.0	-0.648	-0.044	
6.0	0.0	0.0	0.0	0.0	507.0	-0.641	-0.006	
7.0	0.0	0.0	0.0	0.0	508.0	-0.632	-0.038	
8.0	0.0	0.0	0.0	0.0	510.0	-0.622	-0.009	
9.0	0.0	0.0	0.0	0.0	514.0	-0.612	-0.062	
10.0	0.0	0.0	0.0	0.0	518.0	-0.603	-0.053	
11.0	0.0	0.0	0.0	0.0	522.0	-0.59	-0.082	
12.0	0.0	0.0	0.0	0.0	527.0	-0.577	-0.059	
13.0	0.0	0.0	0.0	0.0	530.0	-0.564	-0.105	
14.0	0.0	0.0	0.0	0.0	532.0	-0.548	-0.073	
15.0	0.0	0.0	0.0	0.0	535.0	-0.535	-0.114	
0.0	0.0	0.0	0.0	0.0	536.0	-0.516	-0.073	
1.0	0.0	0.0	0.0	0.0	537.0	-0.5	-0.103	
2.0	0.0	0.0	0.0	0.0	538.0	-0.48	-0.056	
3.0	0.0	0.0	0.0	0.0	536.0	-0.461	-0.067	
4.0	0.0	0.0	0.0	0.0	534.0	-0.438	0.003	
5.0	0.0	0.0	0.0	0.0	532.0	-0.413	-0.018	
6.0	0.0	0.0	0.0	0.0	532.0	-0.39	0.044	
7.0	0.0	0.0	0.0	0.0	532.0	-0.361	0.012	
8.0	0.0	0.0	0.0	0.0	534.0	-0.335	0.082	
9.0	0.0	0.0	0.0	0.0	534.0	-0.309	0.067	
10.0	0.0	0.0	0.0	0.0	534.0	-0.28	0.105	
11.0	0.0	0.0	0.0	0.0	534.0	-0.255	0.076	
12.0	0.0	0.0	0.0	0.0	532.0	-0.226	0.126	
13.0	0.0	0.0	0.0	0.0	531.0	-0.2	0.076	
14.0	0.0	0.0	0.0	0.0	533.0	-0.171	0.144	
15.0	0.0	0.0	0.0	0.0	534.0	-0.142	0.085	
0.0	0.0	0.0	0.0	0.0	535.0	-0.11	0.126	
1.0	0.0	0.0	0.0	0.0	535.0	-0.081	0.091	
2.0	0.0	0.0	0.0	0.0	534.0	-0.045	0.114	
3.0	0.0	0.0	0.0	0.0	536.0	-0.013	0.062	
4.0	0.0	0.0	0.0	0.0	536.0	0.023	0.082	
5.0	0.0	0.0	0.0	0.0	535.0	0.055	0.082	
6.0	0.0	0.0	0.0	0.0	535.0	0.09	0.114	
7.0	0.0	0.0	0.0	0.0	534.0	0.122	0.053	
8.0	0.0	0.0	0.0	0.0	533.0	0.151	0.085	
9.0	0.0	0.0	0.0	0.0	533.0	0.18	0.05	
10.0	0.0	0.0	0.0	0.0	534.0	0.209	0.07	
11.0	0.0	0.0	0.0	0.0	535.0	0.235	0.044	
12.0	0.0	0.0	0.0	0.0	534.0	0.258	0.094	
13.0	0.0	0.0	0.0	0.0	532.0	0.284	0.047	
14.0	0.0	0.0	0.0	0.0	531.0	0.306	0.088	
15.0	0.0	0.0	0.0	0.0	531.0	0.332	0.053	
0.0	0.0	0.0	0.0	0.0	531.0	0.358	0.082	
1.0	0.0	0.0	0.0	0.0	528.0	0.38	0.07	
2.0	0.0	0.0	0.0	0.0	527.0	0.406	0.105	
3.0	0.0	0.0	0.0	0.0	527.0	0.425	0.05	
4.0	0.0	0.0	0.0	0.0	526.0	0.445	0.091	
5.0	0.0	0.0	0.0	0.0	526.0	0.461	0.059	
6.0	0.0	0.0	0.0	0.0	525.0	0.477	0.103	
7.0	0.0	0.0	0.0	0.0	524.0	0.493	0.07	
8.0	0.0	0.0	0.0	0.0	524.0	0.509	0.091	
9.0	0.0	0.0	0.0	0.0	525.0	0.525	0.064	
10.0	0.0	0.0	0.0	0.0	525.0	0.538	0.076	
11.0	0.0	0.0	0.0	0.0	526.0	0.554	0.041	
12.0	0.0	0.0	0.0	0.0	526.0	0.57	0.088	
13.0	0.0	0.0	0.0	0.0	525.0	0.587	0.018	
14.0	0.0	0.0	0.0	0.0	524.0	0.599	0.067	
15.0	0.0	0.0	0.0	0.0	523.0	0.612	0.023	
0.0	0.0	0.0	0.0	0.0	523.0	0.622	0.064	
1.0	0.0	0.0	0.0	0.0	523.0	0.638	0.012	
2.0	0.0	0.0	0.0	0.0	521.0	0.645	0.062	
3.0	0.0	0.0	0.0	0.0	521.0	0.651	0.062	
4.0	0.0	0.0	0.0	0.0	522.0	0.657	0.123	
5.0	0.0	0.0	0.0	0.0	521.0	0.664	0.082	
6.0	0.0	0.0	0.0	0.0	520.0	0.667	0.196	
7.0	0.0	0.0	0.0	0.0	522.0	0.667	0.149	
8.0	0.0	0.0	0.0	0.0	523.0	0.664	0.144	
9.0	0.0	0.0	0.0	0.0	521.0	0.661	0.012	
10.0	0.0	0.0	0.0	0.0	519.0	0.651	-0.026	
11.0	0.0	0.0	0.0	0.0	519.0	0.641	-0.094	
12.0	0.0	0.0	0.0	0.0	519.0	0.632	-0.064	
13.0	0.0	0.0	0.0	0.0	517.0	0.619	-0.1	
14.0	0.0	0.0	0.0	0.0	517.0	0.606	-0.056	
15.0	0.0	0.0	0.0	0.0	517.0	0.593	-0.152	
0.0	0.0	0.0	0.0	0.0	518.0	0.58	-0.079	
1.0	0.0	0.0	0.0	0.0	518.0	0.567	0.208	
2.0	0.0	0.0	0.0	0.0	519.0	0.558	0.633	
3.0	0.0	0.0	0.0	0.0	520.0	0.545	0.39	
4.0	0.0	0.0	0.0	0.0	521.0	0.535	-0.05	
5.0	0.0	0.0	0.0	0.0	520.0	0.522	-0.217	
6.0	0.0	0.0	0.0	0.0	519.0	0.509	-0.234	
7.0	0.0	0.0	0.0	0.0	519.0	0.493	-0.234	
8.0	0.0	0.0	0.0	0.0	518.0	0.474	-0.226	
9.0	0.0	0.0	0.0	0.0	516.0	0.458	-0.196	
10.0	0.0	0.0	0.0	0.0	515.0	0.445	-0.141	
11.0	0.0	0.0	0.0	0.0	514.0	0.429	-0.202	
12.0	0.0	0.0	0.0	0.0	513.0	0.409	-0.132	
13.0	0.0	0.0	0.0	0.0	512.0	0.393	-0.205	
14.0	0.0	0.0	0.0	0.0	511.0	0.374	-0.094	
15.0	0.0	0.0	0.0	0.0	510.0	0.354	-0.144	
0.0	0.0	0.0	0.0	0.0	509.0	0.322	-0.088	
1.0	0.0	0.0	0.0	0.0	508.0	0.293	-0.097	
2.0	0.0	0.0	0.0	0.0	507.0	0.261	-0.073	
3.0	0.0	0.0	0.0	0.0	508.0	0.229	-0.111	
4.0	0.0	0.0	0.0	0.0	509.0	0.2	-0.091	
5.0	0.0	0.0	0.0	0.0	508.0	0.164	-0.085	
6.0	0.0	0.0	0.0	0.0	509.0	0.132	-0.026	
7.0	0.0	0.0	0.0	0.0	510.0	0.1	-0.064	
8.0	0.0	0.0	0.0	0.0	510.0	0.064	-0.012	
9.0	0.0	0.0	0.0	0.0	512.0	0.032	-0.047	
10.0	0.0	0.0	0.0	0.0	514.0	-0.003	-0.006	
11.0	0.0	0.0	0.0	0.0	515.0	-0.042	-0.029	
12.0	0.0	0.0	0.0	0.0	518.0	-0.081	-0.015	
13.0	0.0	0.0	0.0	0.0	521.0	-0.119	-0.032	
14.0	0.0	0.0	0.0	0.0	524.0	-0.158	-0.038	
15.0	0.0	0.0	0.0	0.0	528.0	-0.193	-0.047	
0.0	0.0	0.0	0.0	0.0	532.0	-0.229	-0.056	
1.0	0.0	0.0	0.0	0.0	536.0	-0.264	-0.094	
2.0	0.0	0.0	0.0	0.0	541.0	-0.296	-0.073	
3.0	0.0	0.0	0.0	0.0	543.0	-0.329	-0.103	
4.0	0.0	0.0	0.0	0.0	547.0	-0.361	-0.105	
5.0	0.0	0.0	0.0	0.0	549.0	-0.39	-0.185	
6.0	0.0	0.0	0.0	0.0	552.0	-0.419	-0.152	
7.0	0.0	0.0	0.0	0.0	554.0	-0.448	-0.173	
8.0	0.0	0.0	0.0	0.0	556.0	-0.477	-0.094	
9.0	0.0	0.0	0.0	0.0	555.0	-0.506	-0.144	
10.0	0.0	0.0	0.0	0.0	554.0	-0.532	-0.082	
11.0	0.0	0.0	0.0	0.0	554.0	-0.558	-0.114	
12.0	0.0	0.0	0.0	0.0	555.0	-0.58	-0.07	
13.0	0.0	0.0	0.0	0.0	555.0	-0.606	-0.038	
14.0	0.0	0.0	0.0	0.0	555.0	-0.622	-0.012	
15.0	0.0	0.0	0.0	0.0	555.0	-0.638	-0.035	
0.0	0.0	0.0	0.0	0.0	555.0	-0.648	-0.021	
1.0	0.0	0.0	0.0	0.0	554.0	-0.661	-0.018	
2.0	0.0	0.0	0.0	0.0	555.0	-0.664	0.032	
3.0	0.0	0.0	0.0	0.0	556.0	-0.67	0.003	
4.0	0.0	0.0	0.0	0.0	557.0	-0.67	0.032	
5.0	0.0	0.0	0.0	0.0	557.0	-0.67	0.021	
6.0	0.0	0.0	0.0	0.0	557.0	-0.677	0.044	
7.0	0.0	0.0	0.0	0.0	556.0	-0.677	0.0	
8.0	0.0	0.0	0.0	0.0	557.0	-0.68	0.044	
9.0	0.0	0.0	0.0	0.0	557.0	-0.68	-0.009	
10.0	0.0	0.0	0.0	0.0	558.0	-0.683	0.032	
11.0	0.0	0.0	0.0	0.0	559.0	-0.683	0.006	
12.0	0.0	0.0	0.0	0.0	558.0	-0.686	0.018	
13.0	0.0	0.0	0.0	0.0	557.0	-0.686	-0.015	
14.0	0.0	0.0	0.0	0.0	556.0	-0.69	0.009	
15.0	0.0	0.0	0.0	0.0	556.0	-0.69	-0.05	
0.0	0.0	0.0	0.0	0.0	555.0	-0.69	0.015	
1.0	0.0	0.0	0.0	0.0	553.0	-0.69	-0.021	
2.0	0.0	0.0	0.0	0.0	553.0	-0.693	-0.003	
3.0	0.0	0.0	0.0	0.0	553.0	-0.693	-0.044	
4.0	0.0	0.0	0.0	0.0	553.0	-0.693	-0.023	
5.0	0.0	0.0	0.0	0.0	551.0	-0.699	-0.044	
6.0	0.0	0.0	0.0	0.0	550.0	-0.703	-0.009	
7.0	0.0	0.0	0.0	0.0	550.0	-0.709	-0.038	
8.0	0.0	0.0	0.0	0.0	550.0	-0.715	-0.015	
9.0	0.0	0.0	0.0	0.0	550.0	-0.722	-0.035	
10.0	0.0	0.0	0.0	0.0	548.0	-0.728	0.032	
11.0	0.0	0.0	0.0	0.0	548.0	-0.735	-0.012	
12.0	0.0	0.0	0.0	0.0	549.0	-0.738	0.023	
13.0	0.0	0.0	0.0	0.0	547.0	-0.744	-0.015	
14.0	0.0	0.0	0.0	0.0	546.0	-0.748	0.026	
15.0	0.0	0.0	0.0	0.0	547.0	-0.748	-0.006	
0.0	0.0	0.0	0.0	0.0	545.0	-0.744	0.003	
1.0	0.0	0.0	0.0	0.0	543.0	-0.738	-0.018	
2.0	0.0	0.0	0.0	0.0	543.0	-0.725	0.0	
3.0	0.0	0.0	0.0	0.0	540.0	-0.712	-0.026	
4.0	0.0	0.0	0.0	0.0	539.0	-0.696	0.012	
5.0	0.0	0.0	0.0	0.0	536.0	-0.677	-0.021	
6.0	0.0	0.0	0.0	0.0	536.0	-0.661	-0.006	
7.0	0.0	0.0	0.0	0.0	536.0	-0.632	-0.018	
8.0	0.0	0.0	0.0	0.0	534.0	-0.606	0.012	
9.0	0.0	0.0	0.0	0.0	535.0	-0.57	0.006	
10.0	0.0	0.0	0.0	0.0	532.0	-0.532	0.038	
11.0	0.0	0.0	0.0	0.0	531.0	-0.487	0.018	
12.0	0.0	0.0	0.0	0.0	530.0	-0.442	0.062	
13.0	0.0	0.0	0.0	0.0	530.0	-0.396	0.044	
14.0	0.0	0.0	0.0	0.0	529.0	-0.351	0.056	
15.0	0.0	0.0	0.0	0.0	529.0	-0.306	0.056	
0.0	0.0	0.0	0.0	0.0	529.0	-0.261	0.144	
1.0	0.0	0.0	0.0	0.0	530.0	-0.216	0.146	
2.0	0.0	0.0	0.0	0.0	528.0	-0.171	0.179	
3.0	0.0	0.0	0.0	0.0	526.0	-0.129	0.179	
4.0	0.0	0.0	0.0	0.0	526.0	-0.084	0.164	
5.0	0.0	0.0	0.0	0.0	525.0	-0.042	0.103	
6.0	0.0	0.0	0.0	0.0	523.0	0.0	0.047	
7.0	0.0	0.0	0.0	0.0	521.0	0.042	-0.003	
8.0	0.0	0.0	0.0	0.0	520.0	0.087	0.012	
9.0	0.0	0.0	0.0	0.0	519.0	0.129	-0.032	
10.0	0.0	0.0	0.0	0.0	517.0	0.174	0.018	
11.0	0.0	0.0	0.0	0.0	517.0	0.216	-0.003	
12.0	0.0	0.0	0.0	0.0	516.0	0.258	-0.021	
13.0	0.0	0.0	0.0	0.0	515.0	0.3	0.149	
14.0	0.0	0.0	0.0	0.0	515.0	0.342	0.63	
15.0	0.0	0.0	0.0	0.0	513.0	0.383	0.653	
0.0	0.0	0.0	0.0	0.0	512.0	0.422	0.161	
1.0	0.0	0.0	0.0	0.0	512.0	0.461	-0.053	
2.0	0.0	0.0	0.0	0.0	513.0	0.496	-0.138	
3.0	0.0	0.0	0.0	0.0	513.0	0.529	-0.138	
4.0	0.0	0.0	0.0	0.0	514.0	0.558	-0.097	
5.0	0.0	0.0	0.0	0.0	514.0	0.587	-0.105	
6.0	0.0	0.0	0.0	0.0	515.0	0.616	-0.056	
7.0	0.0	0.0	0.0	0.0	516.0	0.641	-0.079	
8.0	0.0	0.0	0.0	0.0	515.0	0.667	-0.029	
9.0	0.0	0.0	0.0	0.0	515.0	0.69	-0.056	
10.0	0.0	0.0	0.0	0.0	515.0	0.709	-0.015	
11.0	0.0	0.0	0.0	0.0	514.0	0.722	-0.041	
12.0	0.0	0.0	0.0	0.0	513.0	0.735	0.003	
13.0	0.0	0.0	0.0	0.0	512.0	0.738	-0.032	
14.0	0.0	0.0	0.0	0.0	511.0	0.738	0.026	
15.0	0.0	0.0	0.0	0.0	512.0	0.732	-0.006	
0.0	0.0	0.0	0.0	0.0	511.0	0.722	0.044	
1.0	0.0	0.0	0.0	0.0	510.0	0.706	0.023	
2.0	0.0	0.0	0.0	0.0	510.0	0.69	0.067	
3.0	0.0	0.0	0.0	0.0	510.0	0.67	0.041	
4.0	0.0	0.0	0.0	0.0	511.0	0.651	0.088	
5.0	0.0	0.0	0.0	0.0	509.0	0.632	0.064	
6.0	0.0	0.0	0.0	0.0	508.0	0.616	0.091	
7.0	0.0	0.0	0.0	0.0	509.0	0.593	0.067	
8.0	0.0	0.0	0.0	0.0	510.0	0.57	0.085	
9.0	0.0	0.0	0.0	0.0	512.0	0.548	0.038	
10.0	0.0	0.0	0.0	0.0	516.0	0.525	0.056	
11.0	0.0	0.0	0.0	0.0	520.0	0.506	0.026	
12.0	0.0	0.0	0.0	0.0	527.0	0.483	0.044	
13.0	0.0	0.0	0.0	0.0	532.0	0.467	-0.021	
14.0	0.0	0.0	0.0	0.0	539.0	0.454	0.015	
15.0	0.0	0.0	0.0	0.0	545.0	0.445	-0.062	
0.0	0.0	0.0	0.0	0.0	549.0	0.435	-0.044	
1.0	0.0	0.0	0.0	0.0	553.0	0.429	-0.108	
2.0	0.0	0.0	0.0	0.0	555.0	0.422	-0.085	
3.0	0.0	0.0	0.0	0.0	555.0	0.422	-0.161	
4.0	0.0	0.0	0.0	0.0	558.0	0.422	-0.07	
5.0	0.0	0.0	0.0	0.0	559.0	0.422	-0.1	
6.0	0.0	0.0	0.0	0.0	559.0	0.425	-0.082	
7.0	0.0	0.0	0.0	0.0	559.0	0.432	-0.117	
8.0	0.0	0.0	0.0	0.0	559.0	0.435	-0.085	
9.0	0.0	0.0	0.0	0.0	557.0	0.435	-0.097	
10.0	0.0	0.0	0.0	0.0	555.0	0.435	-0.07	
11.0	0.0	0.0	0.0	0.0	551.0	0.435	-0.082	
12.0	0.0	0.0	0.0	0.0	548.0	0.442	-0.047	
13.0	0.0	0.0	0.0	0.0	546.0	0.445	-0.05	
14.0	0.0	0.0	0.0	0.0	546.0	0.451	-0.026	
15.0	0.0	0.0	0.0	0.0	545.0	0.461	-0.038	
0.0	0.0	0.0	0.0	0.0	544.0	0.474	-0.021	
1.0	0.0	0.0	0.0	0.0	543.0	0.487	-0.021	
2.0	0.0	0.0	0.0	0.0	544.0	0.493	-0.015	
3.0	0.0	0.0	0.0	0.0	543.0	0.503	-0.026	
4.0	0.0	0.0	0.0	0.0	544.0	0.506	-0.012	
5.0	0.0	0.0	0.0	0.0	545.0	0.509	-0.062	
6.0	0.0	0.0	0.0	0.0	544.0	0.509	-0.035	
7.0	0.0	0.0	0.0	0.0	544.0	0.509	-0.064	
8.0	0.0	0.0	0.0	0.0	543.0	0.506	-0.047	
9.0	0.0	0.0	0.0	0.0	541.0	0.503	-0.073	
10.0	0.0	0.0	0.0	0.0	538.0	0.496	-0.047	
11.0	0.0	0.0	0.0	0.0	537.0	0.483	-0.103	
12.0	0.0	0.0	0.0	0.0	537.0	0.474	-0.047	
13.0	0.0	0.0	0.0	0.0	536.0	0.458	-0.097	
14.0	0.0	0.0	0.0	0.0	534.0	0.438	-0.073	
15.0	0.0	0.0	0.0	0.0	532.0	0.419	-0.088	
0.0	0.0	0.0	0.0	0.0	532.0	0.4	-0.076	
1.0	0.0	0.0	0.0	0.0	531.0	0.38	-0.076	
2.0	0.0	0.0	0.0	0.0	532.0	0.361	-0.064	
3.0	0.0	0.0	0.0	0.0	532.0	0.338	-0.082	
4.0	0.0	0.0	0.0	0.0	534.0	0.316	-0.053	
5.0	0.0	0.0	0.0	0.0	534.0	0.296	-0.076	
6.0	0.0	0.0	0.0	0.0	533.0	0.277	-0.073	
7.0	0.0	0.0	0.0	0.0	532.0	0.255	-0.091	
8.0	0.0	0.0	0.0	0.0	531.0	0.232	-0.006	
9.0	0.0	0.0	0.0	0.0	528.0	0.209	-0.012	
10.0	0.0	0.0	0.0	0.0	526.0	0.187	0.021	
11.0	0.0	0.0	0.0	0.0	525.0	0.164	-0.018	
12.0	0.0	0.0	0.0	0.0	524.0	0.148	0.105	
13.0	0.0	0.0	0.0	0.0	521.0	0.126	0.05	
14.0	0.0	0.0	0.0	0.0	519.0	0.11	0.021	
15.0	0.0	0.0	0.0	0.0	518.0	0.097	-0.123	
0.0	0.0	0.0	0.0	0.0	517.0	0.084	-0.129	
1.0	0.0	0.0	0.0	0.0	515.0	0.071	-0.149	
2.0	0.0	0.0	0.0	0.0	514.0	0.058	-0.146	
3.0	0.0	0.0	0.0	0.0	513.0	0.045	-0.146	
4.0	0.0	0.0	0.0	0.0	511.0	0.026	-0.117	
5.0	0.0	0.0	0.0	0.0	511.0	0.01	-0.132	
6.0	0.0	0.0	0.0	0.0	512.0	-0.006	-0.044	
7.0	0.0	0.0	0.0	0.0	512.0	-0.026	0.352	
8.0	0.0	0.0	0.0	0.0	512.0	-0.042	0.68	
9.0	0.0	0.0	0.0	0.0	512.0	-0.058	0.302	
10.0	0.0	0.0	0.0	0.0	513.0	-0.074	-0.117	
11.0	0.0	0.0	0.0	0.0	514.0	-0.09	-0.188	
12.0	0.0	0.0	0.0	0.0	515.0	-0.103	-0.167	
13.0	0.0	0.0	0.0	0.0	515.0	-0.119	-0.161	
14.0	0.0	0.0	0.0	0.0	514.0	-0.132	-0.155	
15.0	0.0	0.0	0.0	0.0	514.0	-0.142	-0.12	
0.0	0.0	0.0	0.0	0.0	513.0	-0.148	-0.097	
1.0	0.0	0.0	0.0	0.0	512.0	-0.155	-0.088	
2.0	0.0	0.0	0.0	0.0	511.0	-0.161	-0.079	
3.0	0.0	0.0	0.0	0.0	511.0	-0.171	-0.129	
4.0	0.0	0.0	0.0	0.0	510.0	-0.184	-0.003	
5.0	0.0	0.0	0.0	0.0	509.0	-0.193	-0.015	
6.0	0.0	0.0	0.0	0.0	509.0	-0.203	0.023	
7.0	0.0	0.0	0.0	0.0	508.0	-0.216	-0.012	
8.0	0.0	0.0	0.0	0.0	507.0	-0.229	0.021	
9.0	0.0	0.0	0.0	0.0	505.0	-0.238	0.035	
10.0	0.0	0.0	0.0	0.0	504.0	-0.248	0.032	
11.0	0.0	0.0	0.0	0.0	502.0	-0.258	0.044	
12.0	0.0	0.0	0.0	0.0	501.0	-0.264	0.073	
13.0	0.0	0.0	0.0	0.0	502.0	-0.271	0.026	
14.0	0.0	0.0	0.0	0.0	503.0	-0.277	0.091	
15.0	0.0	0.0	0.0	0.0	504.0	-0.287	0.076	
0.0	0.0	0.0	0.0	0.0	505.0	-0.293	0.073	
1.0	0.0	0.0	0.0	0.0	506.0	-0.3	0.029	
2.0	0.0	0.0	0.0	0.0	507.0	-0.313	0.082	
3.0	0.0	0.0	0.0	0.0	510.0	-0.319	0.018	
4.0	0.0	0.0	0.0	0.0	513.0	-0.325	0.05	
5.0	0.0	0.0	0.0	0.0	517.0	-0.335	0.018	
6.0	0.0	0.0	0.0	0.0	521.0	-0.345	0.003	
7.0	0.0	0.0	0.0	0.0	527.0	-0.351	0.003	
8.0	0.0	0.0	0.0	0.0	532.0	-0.361	-0.015	
9.0	0.0	0.0	0.0	0.0	536.0	-0.367	-0.1	
10.0	0.0	0.0	0.0	0.0	540.0	-0.374	-0.105	
11.0	0.0	0.0	0.0	0.0	542.0	-0.383	-0.085	
12.0	0.0	0.0	0.0	0.0	543.0	-0.39	-0.076	
13.0	0.0	0.0	0.0	0.0	544.0	-0.396	-0.111	
14.0	0.0	0.0	0.0	0.0	545.0	-0.4	-0.073	
15.0	0.0	0.0	0.0	0.0	545.0	-0.403	-0.076	
0.0	0.0	0.0	0.0	0.0	545.0	-0.406	-0.041	
1.0	0.0	0.0	0.0	0.0	543.0	-0.406	-0.026	
2.0	0.0	0.0	0.0	0.0	543.0	-0.409	0.0	
3.0	0.0	0.0	0.0	0.0	543.0	-0.413	-0.041	
4.0	0.0	0.0	0.0	0.0	542.0	-0.413	0.0	
5.0	0.0	0.0	0.0	0.0	540.0	-0.413	0.009	
6.0	0.0	0.0	0.0	0.0	539.0	-0.413	0.0	
7.0	0.0	0.0	0.0	0.0	536.0	-0.416	-0.021	
8.0	0.0	0.0	0.0	0.0	534.0	-0.416	0.041	
9.0	0.0	0.0	0.0	0.0	532.0	-0.416	0.035	
10.0	0.0	0.0	0.0	0.0	533.0	-0.416	0.012	
11.0	0.0	0.0	0.0	0.0	533.0	-0.416	0.05	
12.0	0.0	0.0	0.0	0.0	532.0	-0.416	0.029	
13.0	0.0	0.0	0.0	0.0	532.0	-0.416	0.032	
14.0	0.0	0.0	0.0	0.0	531.0	-0.416	0.044	
15.0	0.0	0.0	0.0	0.0	530.0	-0.419	0.009	
0.0	0.0	0.0	0.0	0.0	529.0	-0.419	0.003	
1.0	0.0	0.0	0.0	0.0	527.0	-0.419	0.009	
2.0	0.0	0.0	0.0	0.0	527.0	-0.422	-0.003	
3.0	0.0	0.0	0.0	0.0	527.0	-0.422	-0.035	
4.0	0.0	0.0	0.0	0.0	527.0	-0.422	-0.018	
5.0	0.0	0.0	0.0	0.0	524.0	-0.425	-0.05	
6.0	0.0	0.0	0.0	0.0	523.0	-0.425	0.018	
7.0	0.0	0.0	0.0	0.0	521.0	-0.425	-0.006	
8.0	0.0	0.0	0.0	0.0	521.0	-0.425	-0.023	
9.0	0.0	0.0	0.0	0.0	519.0	-0.425	-0.029	
10.0	0.0	0.0	0.0	0.0	519.0	-0.425	0.003	
11.0	0.0	0.0	0.0	0.0	518.0	-0.425	-0.029	
12.0	0.0	0.0	0.0	0.0	517.0	-0.432	-0.003	
13.0	0.0	0.0	0.0	0.0	516.0	-0.432	-0.021	
14.0	0.0	0.0	0.0	0.0	515.0	-0.438	0.009	
15.0	0.0	0.0	0.0	0.0	514.0	-0.438	0.012	
0.0	0.0	0.0	0.0	0.0	513.0	-0.442	0.015	
1.0	0.0	0.0	0.0	0.0	510.0	-0.445	0.003	
2.0	0.0	0.0	0.0	0.0	509.0	-0.451	0.026	
3.0	0.0	0.0	0.0	0.0	510.0	-0.451	0.079	
4.0	0.0	0.0	0.0	0.0	510.0	-0.454	0.1	
5.0	0.0	0.0	0.0	0.0	509.0	-0.458	0.105	
6.0	0.0	0.0	0.0	0.0	508.0	-0.458	0.161	
7.0	0.0	0.0	0.0	0.0	508.0	-0.458	0.114	
8.0	0.0	0.0	0.0	0.0	507.0	-0.454	0.097	
9.0	0.0	0.0	0.0	0.0	504.0	-0.454	0.012	
10.0	0.0	0.0	0.0	0.0	503.0	-0.454	-0.059	
11.0	0.0	0.0	0.0	0.0	502.0	-0.451	-0.073	
12.0	0.0	0.0	0.0	0.0	500.0	-0.451	-0.07	
13.0	0.0	0.0	0.0	0.0	499.0	-0.448	-0.094	
14.0	0.0	0.0	0.0	0.0	500.0	-0.442	-0.05	
15.0	0.0	0.0	0.0	0.0	502.0	-0.438	-0.094	
0.0	0.0	0.0	0.0	0.0	504.0	-0.432	-0.082	
1.0	0.0	0.0	0.0	0.0	506.0	-0.425	0.193	
2.0	0.0	0.0	0.0	0.0	505.0	-0.416	0.589	
3.0	0.0	0.0	0.0	0.0	505.0	-0.406	0.495	
4.0	0.0	0.0	0.0	0.0	506.0	-0.4	-0.006	
5.0	0.0	0.0	0.0	0.0	507.0	-0.387	-0.108	
6.0	0.0	0.0	0.0	0.0	506.0	-0.377	-0.146	
7.0	0.0	0.0	0.0	0.0	505.0	-0.367	-0.105	
8.0	0.0	0.0	0.0	0.0	504.0	-0.354	-0.079	
9.0	0.0	0.0	0.0	0.0	502.0	-0.342	-0.079	
10.0	0.0	0.0	0.0	0.0	500.0	-0.325	-0.094	
11.0	0.0	0.0	0.0	0.0	498.0	-0.309	-0.064	
12.0	0.0	0.0	0.0	0.0	497.0	-0.29	-0.056	
13.0	0.0	0.0	0.0	0.0	496.0	-0.267	-0.076	
14.0	0.0	0.0	0.0	0.0	494.0	-0.248	-0.062	
15.0	0.0	0.0	0.0	0.0	495.0	-0.222	-0.026	
0.0	0.0	0.0	0.0	0.0	496.0	-0.2	-0.015	
1.0	0.0	0.0	0.0	0.0	497.0	-0.174	-0.009	
2.0	0.0	0.0	0.0	0.0	498.0	-0.148	0.009	
3.0	0.0	0.0	0.0	0.0	498.0	-0.122	0.012	
4.0	0.0	0.0	0.0	0.0	496.0	-0.1	0.044	
5.0	0.0	0.0	0.0	0.0	495.0	-0.074	0.029	
6.0	0.0	0.0	0.0	0.0	494.0	-0.045	0.032	
7.0	0.0	0.0	0.0	0.0	494.0	-0.019	0.038	
8.0	0.0	0.0	0.0	0.0	494.0	0.01	0.082	
9.0	0.0	0.0	0.0	0.0	494.0	0.032	0.056	
10.0	0.0	0.0	0.0	0.0	495.0	0.061	0.07	
11.0	0.0	0.0	0.0	0.0	497.0	0.087	0.07	
12.0	0.0	0.0	0.0	0.0	498.0	0.113	0.064	
13.0	0.0	0.0	0.0	0.0	496.0	0.135	0.067	
14.0	0.0	0.0	0.0	0.0	497.0	0.158	0.056	
15.0	0.0	0.0	0.0	0.0	500.0	0.18	0.05	
0.0	0.0	0.0	0.0	0.0	504.0	0.203	0.047	
1.0	0.0	0.0	0.0	0.0	507.0	0.222	0.032	
2.0	0.0	0.0	0.0	0.0	512.0	0.245	0.003	
3.0	0.0	0.0	0.0	0.0	516.0	0.264	-0.029	
4.0	0.0	0.0	0.0	0.0	520.0	0.284	-0.047	
5.0	0.0	0.0	0.0	0.0	522.0	0.303	-0.059	
6.0	0.0	0.0	0.0	0.0	524.0	0.322	-0.07	
7.0	0.0	0.0	0.0	0.0	524.0	0.342	-0.056	
8.0	0.0	0.0	0.0	0.0	525.0	0.361	-0.041	
9.0	0.0	0.0	0.0	0.0	524.0	0.383	-0.044	
10.0	0.0	0.0	0.0	0.0	525.0	0.4	-0.041	
11.0	0.0	0.0	0.0	0.0	524.0	0.422	-0.006	
12.0	0.0	0.0	0.0	0.0	524.0	0.445	0.009	
13.0	0.0	0.0	0.0	0.0	523.0	0.461	0.0	
14.0	0.0	0.0	0.0	0.0	521.0	0.483	0.023	
15.0	0.0	0.0	0.0	0.0	521.0	0.503	0.05	
0.0	0.0	0.0	0.0	0.0	521.0	0.519	0.035	
1.0	0.0	0.0	0.0	0.0	521.0	0.538	0.059	
2.0	0.0	0.0	0.0	0.0	521.0	0.554	0.067	
3.0	0.0	0.0	0.0	0.0	520.0	0.57	0.038	
4.0	0.0	0.0	0.0	0.0	521.0	0.583	0.041	
5.0	0.0	0.0	0.0	0.0	521.0	0.596	0.041	
6.0	0.0	0.0	0.0	0.0	521.0	0.606	0.038	
7.0	0.0	0.0	0.0	0.0	521.0	0.616	0.023	
8.0	0.0	0.0	0.0	0.0	520.0	0.622	0.035	
9.0	0.0	0.0	0.0	0.0	519.0	0.628	0.021	
10.0	0.0	0.0	0.0	0.0	518.0	0.635	0.003	
11.0	0.0	0.0	0.0	0.0	516.0	0.638	0.032	
12.0	0.0	0.0	0.0	0.0	515.0	0.641	0.0	
13.0	0.0	0.0	0.0	0.0	512.0	0.641	0.018	
14.0	0.0	0.0	0.0	0.0	511.0	0.641	0.012	
15.0	0.0	0.0	0.0	0.0	510.0	0.638	0.015	
0.0	0.0	0.0	0.0	0.0	510.0	0.632	0.012	
1.0	0.0	0.0	0.0	0.0	508.0	0.625	0.0	
2.0	0.0	0.0	0.0	0.0	508.0	0.619	-0.006	
3.0	0.0	0.0	0.0	0.0	508.0	0.606	-0.015	
4.0	0.0	0.0	0.0	0.0	508.0	0.599	-0.032	
5.0	0.0	0.0	0.0	0.0	508.0	0.59	-0.038	
6.0	0.0	0.0	0.0	0.0	508.0	0.577	-0.015	
7.0	0.0	0.0	0.0	0.0	508.0	0.564	-0.021	
8.0	0.0	0.0	0.0	0.0	508.0	0.551	-0.029	
9.0	0.0	0.0	0.0	0.0	510.0	0.538	-0.062	
10.0	0.0	0.0	0.0	0.0	510.0	0.525	-0.018	
11.0	0.0	0.0	0.0	0.0	510.0	0.509	-0.035	
12.0	0.0	0.0	0.0	0.0	508.0	0.493	-0.059	
13.0	0.0	0.0	0.0	0.0	507.0	0.483	-0.047	
14.0	0.0	0.0	0.0	0.0	504.0	0.471	-0.053	
15.0	0.0	0.0	0.0	0.0	502.0	0.458	-0.021	
0.0	0.0	0.0	0.0	0.0	503.0	0.445	-0.023	
1.0	0.0	0.0	0.0	0.0	502.0	0.432	-0.047	
2.0	0.0	0.0	0.0	0.0	500.0	0.419	-0.021	
3.0	0.0	0.0	0.0	0.0	500.0	0.406	-0.006	
4.0	0.0	0.0	0.0	0.0	500.0	0.393	0.026	
5.0	0.0	0.0	0.0	0.0	499.0	0.383	0.056	
6.0	0.0	0.0	0.0	0.0	498.0	0.371	0.073	
7.0	0.0	0.0	0.0	0.0	498.0	0.358	0.114	
8.0	0.0	0.0	0.0	0.0	499.0	0.348	0.117	
9.0	0.0	0.0	0.0	0.0	502.0	0.335	0.05	
10.0	0.0	0.0	0.0	0.0	502.0	0.325	-0.05	
11.0	0.0	0.0	0.0	0.0	503.0	0.316	-0.1	
12.0	0.0	0.0	0.0	0.0	502.0	0.303	-0.129	
13.0	0.0	0.0	0.0	0.0	503.0	0.293	-0.094	
14.0	0.0	0.0	0.0	0.0	503.0	0.284	-0.114	
15.0	0.0	0.0	0.0	0.0	500.0	0.267	-0.088	
0.0	0.0	0.0	0.0	0.0	500.0	0.258	-0.123	
1.0	0.0	0.0	0.0	0.0	500.0	0.248	-0.067	
2.0	0.0	0.0	0.0	0.0	499.0	0.238	0.322	
3.0	0.0	0.0	0.0	0.0	496.0	0.229	0.618	
4.0	0.0	0.0	0.0	0.0	496.0	0.219	0.29	
5.0	0.0	0.0	0.0	0.0	496.0	0.209	-0.135	
6.0	0.0	0.0	0.0	0.0	495.0	0.197	-0.223	
7.0	0.0	0.0	0.0	0.0	497.0	0.184	-0.208	
8.0	0.0	0.0	0.0	0.0	498.0	0.168	-0.188	
9.0	0.0	0.0	0.0	0.0	499.0	0.155	-0.188	
10.0	0.0	0.0	0.0	0.0	500.0	0.142	-0.161	
11.0	0.0	0.0	0.0	0.0	500.0	0.129	-0.152	
12.0	0.0	0.0	0.0	0.0	500.0	0.116	-0.167	
13.0	0.0	0.0	0.0	0.0	498.0	0.106	-0.149	
14.0	0.0	0.0	0.0	0.0	497.0	0.097	-0.12	
15.0	0.0	0.0	0.0	0.0	497.0	0.084	-0.108	
0.0	0.0	0.0	0.0	0.0	496.0	0.071	-0.091	
1.0	0.0	0.0	0.0	0.0	495.0	0.061	-0.097	
2.0	0.0	0.0	0.0	0.0	494.0	0.048	-0.059	
3.0	0.0	0.0	0.0	0.0	493.0	0.035	-0.006	
4.0	0.0	0.0	0.0	0.0	493.0	0.023	-0.015	
5.0	0.0	0.0	0.0	0.0	492.0	0.013	-0.006	
6.0	0.0	0.0	0.0	0.0	490.0	0.0	-0.032	
7.0	0.0	0.0	0.0	0.0	489.0	-0.006	0.038	
8.0	0.0	0.0	0.0	0.0	489.0	-0.016	0.032	
9.0	0.0	0.0	0.0	0.0	488.0	-0.026	0.05	
10.0	0.0	0.0	0.0	0.0	490.0	-0.032	0.038	
11.0	0.0	0.0	0.0	0.0	492.0	-0.042	0.003	
12.0	0.0	0.0	0.0	0.0	496.0	-0.052	0.021	
13.0	0.0	0.0	0.0	0.0	499.0	-0.058	0.009	
14.0	0.0	0.0	0.0	0.0	504.0	-0.068	0.003	
15.0	0.0	0.0	0.0	0.0	509.0	-0.077	0.003	
0.0	0.0	0.0	0.0	0.0	514.0	-0.084	-0.038	
1.0	0.0	0.0	0.0	0.0	519.0	-0.093	0.009	
2.0	0.0	0.0	0.0	0.0	521.0	-0.103	-0.026	
3.0	0.0	0.0	0.0	0.0	526.0	-0.113	-0.041	
4.0	0.0	0.0	0.0	0.0	529.0	-0.122	-0.079	
5.0	0.0	0.0	0.0	0.0	533.0	-0.129	-0.088	
6.0	0.0	0.0	0.0	0.0	535.0	-0.139	-0.097	
7.0	0.0	0.0	0.0	0.0	535.0	-0.145	-0.108	
8.0	0.0	0.0	0.0	0.0	534.0	-0.155	-0.105	
9.0	0.0	0.0	0.0	0.0	532.0	-0.161	-0.1	
10.0	0.0	0.0	0.0	0.0	531.0	-0.168	-0.103	
11.0	0.0	0.0	0.0	0.0	529.0	-0.174	-0.097	
12.0	0.0	0.0	0.0	0.0	528.0	-0.18	-0.062	
13.0	0.0	0.0	0.0	0.0	525.0	-0.187	-0.062	
14.0	0.0	0.0	0.0	0.0	522.0	-0.193	-0.073	
15.0	0.0	0.0	0.0	0.0	519.0	-0.2	-0.059	
0.0	0.0	0.0	0.0	0.0	522.0	-0.206	0.0	
1.0	0.0	0.0	0.0	0.0	524.0	-0.209	0.012	
2.0	0.0	0.0	0.0	0.0	524.0	-0.216	-0.012	
3.0	0.0	0.0	0.0	0.0	526.0	-0.219	0.009	
4.0	0.0	0.0	0.0	0.0	527.0	-0.229	0.021	
5.0	0.0	0.0	0.0	0.0	528.0	-0.235	0.009	
6.0	0.0	0.0	0.0	0.0	529.0	-0.245	-0.003	
7.0	0.0	0.0	0.0	0.0	527.0	-0.255	0.009	
8.0	0.0	0.0	0.0	0.0	527.0	-0.264	-0.047	
9.0	0.0	0.0	0.0	0.0	526.0	-0.274	-0.032	
10.0	0.0	0.0	0.0	0.0	526.0	-0.284	-0.018	
11.0	0.0	0.0	0.0	0.0	526.0	-0.296	-0.047	
12.0	0.0	0.0	0.0	0.0	526.0	-0.306	-0.041	
13.0	0.0	0.0	0.0	0.0	527.0	-0.319	-0.047	
14.0	0.0	0.0	0.0	0.0	526.0	-0.329	-0.038	
15.0	0.0	0.0	0.0	0.0	526.0	-0.342	-0.012	
0.0	0.0	0.0	0.0	0.0	524.0	-0.351	-0.015	
1.0	0.0	0.0	0.0	0.0	524.0	-0.364	-0.015	
2.0	0.0	0.0	0.0	0.0	522.0	-0.377	-0.026	
3.0	0.0	0.0	0.0	0.0	520.0	-0.39	0.012	
4.0	0.0	0.0	0.0	0.0	518.0	-0.403	-0.015	
5.0	0.0	0.0	0.0	0.0	515.0	-0.416	0.026	
6.0	0.0	0.0	0.0	0.0	515.0	-0.425	0.009	
7.0	0.0	0.0	0.0	0.0	514.0	-0.438	0.012	
8.0	0.0	0.0	0.0	0.0	515.0	-0.448	0.015	
9.0	0.0	0.0	0.0	0.0	516.0	-0.461	0.003	
10.0	0.0	0.0	0.0	0.0	516.0	-0.467	0.006	
11.0	0.0	0.0	0.0	0.0	515.0	-0.477	-0.003	
12.0	0.0	0.0	0.0	0.0	514.0	-0.487	-0.003	
13.0	0.0	0.0	0.0	0.0	513.0	-0.493	0.018	
14.0	0.0	0.0	0.0	0.0	512.0	-0.5	0.021	
15.0	0.0	0.0	0.0	0.0	509.0	-0.503	0.003	
0.0	0.0	0.0	0.0	0.0	507.0	-0.506	0.038	
1.0	0.0	0.0	0.0	0.0	506.0	-0.506	0.038	
2.0	0.0	0.0	0.0	0.0	507.0	-0.506	0.035	
3.0	0.0	0.0	0.0	0.0	507.0	-0.506	0.018	
4.0	0.0	0.0	0.0	0.0	508.0	-0.503	0.026	
5.0	0.0	0.0	0.0	0.0	511.0	-0.496	0.047	
6.0	0.0	0.0	0.0	0.0	511.0	-0.493	0.023	
7.0	0.0	0.0	0.0	0.0	511.0	-0.483	0.032	
8.0	0.0	0.0	0.0	0.0	511.0	-0.48	0.029	
9.0	0.0	0.0	0.0	0.0	512.0	-0.474	0.038	
10.0	0.0	0.0	0.0	0.0	512.0	-0.464	0.021	
11.0	0.0	0.0	0.0	0.0	511.0	-0.461	0.032	
12.0	0.0	0.0	0.0	0.0	511.0	-0.454	0.035	
13.0	0.0	0.0	0.0	0.0	510.0	-0.448	0.044	
14.0	0.0	0.0	0.0	0.0	512.0	-0.438	0.023	
15.0	0.0	0.0	0.0	0.0	510.0	-0.432	0.026	
0.0	0.0	0.0	0.0	0.0	511.0	-0.425	0.029	
1.0	0.0	0.0	0.0	0.0	510.0	-0.416	0.026	
2.0	0.0	0.0	0.0	0.0	509.0	-0.409	0.029	
3.0	0.0	0.0	0.0	0.0	507.0	-0.403	0.056	
4.0	0.0	0.0	0.0	0.0	506.0	-0.39	0.041	
5.0	0.0	0.0	0.0	0.0	506.0	-0.387	0.056	
6.0	0.0	0.0	0.0	0.0	506.0	-0.38	0.023	
7.0	0.0	0.0	0.0	0.0	506.0	-0.374	0.067	
8.0	0.0	0.0	0.0	0.0	506.0	-0.367	0.038	
9.0	0.0	0.0	0.0	0.0	506.0	-0.364	0.059	
10.0	0.0	0.0	0.0	0.0	503.0	-0.361	0.035	
11.0	0.0	0.0	0.0	0.0	502.0	-0.358	0.082	
12.0	0.0	0.0	0.0	0.0	501.0	-0.358	0.105	
13.0	0.0	0.0	0.0	0.0	500.0	-0.358	0.111	
14.0	0.0	0.0	0.0	0.0	499.0	-0.358	0.132	
15.0	0.0	0.0	0.0	0.0	499.0	-0.358	0.164	
0.0	0.0	0.0	0.0	0.0	499.0	-0.358	0.111	
1.0	0.0	0.0	0.0	0.0	500.0	-0.361	0.047	
2.0	0.0	0.0	0.0	0.0	501.0	-0.361	-0.032	
3.0	0.0	0.0	0.0	0.0	500.0	-0.364	-0.067	
4.0	0.0	0.0	0.0	0.0	499.0	-0.364	-0.097	
5.0	0.0	0.0	0.0	0.0	499.0	-0.367	-0.05	
6.0	0.0	0.0	0.0	0.0	501.0	-0.367	-0.076	
7.0	0.0	0.0	0.0	0.0	501.0	-0.367	-0.041	
8.0	0.0	0.0	0.0	0.0	501.0	-0.367	-0.105	
9.0	0.0	0.0	0.0	0.0	502.0	-0.367	0.029	
10.0	0.0	0.0	0.0	0.0	503.0	-0.361	0.457	
