# OpenSignals Text File Format. Version 1
# {"88:6B:0F:F0:D4:D1": {"position": 0, "device": "bitalino_rev", "device name": "88:6B:0F:F0:D4:D1", "device connection": "BTH88:6B:0F:F0:D4:D1", "sampling rate": 100, "resolution": [4, 1, 1, 1, 1, 10], "firmware version": 1282, "comments": "", "keywords": "", "mode": 0, "sync interval": 2, "date": "2025-10-22", "time": "10:32:28.981", "channels": [2], "sensor": ["ECGBIT"], "label": ["A2"], "column": ["nSeq", "I1", "I2", "O1", "O2", "A2"], "special": [{}], "digital IO": [0, 0, 1, 1], "convertedValues": 0}}
# EndOfHeader
0	0	0	0	0	604	
1	0	0	0	0	558	
2	0	0	0	0	582	
3	0	0	0	0	535	
4	0	0	0	0	553	
5	0	0	0	0	535	
6	0	0	0	0	556	
7	0	0	0	0	518	
8	0	0	0	0	559	
9	0	0	0	0	543	
10	0	0	0	0	516	
11	0	0	0	0	517	
12	0	0	0	0	706	
13	0	0	0	0	896	
14	0	0	0	0	842	
15	0	0	0	0	622	
0	0	0	0	0	512	
1	0	0	0	0	459	
2	0	0	0	0	481	
3	0	0	0	0	453	
4	0	0	0	0	488	
5	0	0	0	0	471	
6	0	0	0	0	506	
7	0	0	0	0	493	
8	0	0	0	0	526	
9	0	0	0	0	505	
10	0	0	0	0	533	
11	0	0	0	0	512	
12	0	0	0	0	542	
13	0	0	0	0	528	
14	0	0	0	0	552	
15	0	0	0	0	524	
0	0	0	0	0	551	
1	0	0	0	0	527	
2	0	0	0	0	569	
3	0	0	0	0	541	
4	0	0	0	0	584	
5	0	0	0	0	542	
6	0	0	0	0	567	
7	0	0	0	0	554	
8	0	0	0	0	569	
9	0	0	0	0	547	
10	0	0	0	0	581	
11	0	0	0	0	560	
12	0	0	0	0	567	
13	0	0	0	0	532	
14	0	0	0	0	553	
15	0	0	0	0	513	
0	0	0	0	0	514	
1	0	0	0	0	495	
2	0	0	0	0	505	
3	0	0	0	0	480	
4	0	0	0	0	525	
5	0	0	0	0	489	
6	0	0	0	0	519	
7	0	0	0	0	507	
8	0	0	0	0	527	
9	0	0	0	0	512	
10	0	0	0	0	536	
11	0	0	0	0	510	
12	0	0	0	0	542	
13	0	0	0	0	521	
14	0	0	0	0	551	
15	0	0	0	0	524	
0	0	0	0	0	552	
1	0	0	0	0	519	
2	0	0	0	0	556	
3	0	0	0	0	541	
4	0	0	0	0	558	
5	0	0	0	0	528	
6	0	0	0	0	553	
7	0	0	0	0	525	
8	0	0	0	0	552	
9	0	0	0	0	523	
10	0	0	0	0	539	
11	0	0	0	0	521	
12	0	0	0	0	543	
13	0	0	0	0	504	
14	0	0	0	0	548	
15	0	0	0	0	518	
0	0	0	0	0	534	
1	0	0	0	0	499	
2	0	0	0	0	527	
3	0	0	0	0	507	
4	0	0	0	0	517	
5	0	0	0	0	509	
6	0	0	0	0	528	
7	0	0	0	0	507	
8	0	0	0	0	525	
9	0	0	0	0	502	
10	0	0	0	0	530	
11	0	0	0	0	504	
12	0	0	0	0	533	
13	0	0	0	0	499	
14	0	0	0	0	526	
15	0	0	0	0	514	
0	0	0	0	0	524	
1	0	0	0	0	497	
2	0	0	0	0	527	
3	0	0	0	0	505	
4	0	0	0	0	532	
5	0	0	0	0	503	
6	0	0	0	0	516	
7	0	0	0	0	499	
8	0	0	0	0	526	
9	0	0	0	0	484	
10	0	0	0	0	528	
11	0	0	0	0	505	
12	0	0	0	0	530	
13	0	0	0	0	513	
14	0	0	0	0	534	
15	0	0	0	0	513	
0	0	0	0	0	528	
1	0	0	0	0	503	
2	0	0	0	0	536	
3	0	0	0	0	510	
4	0	0	0	0	534	
5	0	0	0	0	521	
6	0	0	0	0	526	
7	0	0	0	0	508	
8	0	0	0	0	531	
9	0	0	0	0	512	
10	0	0	0	0	519	
11	0	0	0	0	518	
12	0	0	0	0	542	
13	0	0	0	0	529	
14	0	0	0	0	556	
15	0	0	0	0	533	
0	0	0	0	0	547	
1	0	0	0	0	508	
2	0	0	0	0	513	
3	0	0	0	0	489	
4	0	0	0	0	502	
5	0	0	0	0	480	
6	0	0	0	0	507	
7	0	0	0	0	486	
8	0	0	0	0	493	
9	0	0	0	0	414	
10	0	0	0	0	578	
11	0	0	0	0	800	
12	0	0	0	0	945	
13	0	0	0	0	667	
14	0	0	0	0	506	
15	0	0	0	0	397	
0	0	0	0	0	415	
1	0	0	0	0	384	
2	0	0	0	0	427	
3	0	0	0	0	412	
4	0	0	0	0	452	
5	0	0	0	0	435	
6	0	0	0	0	460	
7	0	0	0	0	453	
8	0	0	0	0	484	
9	0	0	0	0	460	
10	0	0	0	0	490	
11	0	0	0	0	475	
12	0	0	0	0	496	
13	0	0	0	0	488	
14	0	0	0	0	516	
15	0	0	0	0	497	
0	0	0	0	0	525	
1	0	0	0	0	508	
2	0	0	0	0	532	
3	0	0	0	0	506	
4	0	0	0	0	539	
5	0	0	0	0	514	
6	0	0	0	0	556	
7	0	0	0	0	533	
8	0	0	0	0	540	
9	0	0	0	0	531	
10	0	0	0	0	553	
11	0	0	0	0	530	
12	0	0	0	0	522	
13	0	0	0	0	497	
14	0	0	0	0	488	
15	0	0	0	0	472	
0	0	0	0	0	491	
1	0	0	0	0	464	
2	0	0	0	0	473	
3	0	0	0	0	471	
4	0	0	0	0	495	
5	0	0	0	0	467	
6	0	0	0	0	511	
7	0	0	0	0	470	
8	0	0	0	0	518	
9	0	0	0	0	491	
10	0	0	0	0	484	
11	0	0	0	0	515	
12	0	0	0	0	521	
13	0	0	0	0	482	
14	0	0	0	0	524	
15	0	0	0	0	489	
0	0	0	0	0	535	
1	0	0	0	0	504	
2	0	0	0	0	502	
3	0	0	0	0	492	
4	0	0	0	0	523	
5	0	0	0	0	496	
6	0	0	0	0	500	
7	0	0	0	0	467	
8	0	0	0	0	508	
9	0	0	0	0	499	
10	0	0	0	0	507	
11	0	0	0	0	472	
12	0	0	0	0	495	
13	0	0	0	0	475	
14	0	0	0	0	503	
15	0	0	0	0	490	
0	0	0	0	0	517	
1	0	0	0	0	480	
2	0	0	0	0	513	
3	0	0	0	0	485	
4	0	0	0	0	527	
5	0	0	0	0	499	
6	0	0	0	0	523	
7	0	0	0	0	476	
8	0	0	0	0	493	
9	0	0	0	0	517	
10	0	0	0	0	531	
11	0	0	0	0	491	
12	0	0	0	0	536	
13	0	0	0	0	508	
14	0	0	0	0	508	
15	0	0	0	0	501	
0	0	0	0	0	536	
1	0	0	0	0	513	
2	0	0	0	0	531	
3	0	0	0	0	511	
4	0	0	0	0	508	
5	0	0	0	0	527	
6	0	0	0	0	539	
7	0	0	0	0	511	
8	0	0	0	0	520	
9	0	0	0	0	524	
10	0	0	0	0	541	
11	0	0	0	0	509	
12	0	0	0	0	534	
13	0	0	0	0	522	
14	0	0	0	0	519	
15	0	0	0	0	526	
0	0	0	0	0	535	
1	0	0	0	0	513	
2	0	0	0	0	540	
3	0	0	0	0	505	
4	0	0	0	0	535	
5	0	0	0	0	516	
6	0	0	0	0	513	
7	0	0	0	0	519	
8	0	0	0	0	539	
9	0	0	0	0	505	
10	0	0	0	0	532	
11	0	0	0	0	547	
12	0	0	0	0	537	
13	0	0	0	0	540	
14	0	0	0	0	573	
15	0	0	0	0	492	
0	0	0	0	0	579	
1	0	0	0	0	481	
2	0	0	0	0	500	
3	0	0	0	0	455	
4	0	0	0	0	527	
5	0	0	0	0	510	
6	0	0	0	0	503	
7	0	0	0	0	503	
8	0	0	0	0	419	
9	0	0	0	0	470	
10	0	0	0	0	732	
11	0	0	0	0	925	
12	0	0	0	0	764	
13	0	0	0	0	504	
14	0	0	0	0	438	
15	0	0	0	0	405	
0	0	0	0	0	411	
1	0	0	0	0	403	
2	0	0	0	0	408	
3	0	0	0	0	424	
4	0	0	0	0	436	
5	0	0	0	0	431	
6	0	0	0	0	470	
7	0	0	0	0	455	
8	0	0	0	0	486	
9	0	0	0	0	462	
10	0	0	0	0	480	
11	0	0	0	0	471	
12	0	0	0	0	509	
13	0	0	0	0	487	
14	0	0	0	0	513	
15	0	0	0	0	465	
0	0	0	0	0	523	
1	0	0	0	0	507	
2	0	0	0	0	512	
3	0	0	0	0	511	
4	0	0	0	0	519	
5	0	0	0	0	504	
6	0	0	0	0	517	
7	0	0	0	0	507	
8	0	0	0	0	541	
9	0	0	0	0	518	
10	0	0	0	0	545	
11	0	0	0	0	504	
12	0	0	0	0	503	
13	0	0	0	0	473	
14	0	0	0	0	494	
15	0	0	0	0	474	
0	0	0	0	0	468	
1	0	0	0	0	438	
2	0	0	0	0	472	
3	0	0	0	0	447	
4	0	0	0	0	485	
5	0	0	0	0	408	
6	0	0	0	0	524	
7	0	0	0	0	487	
8	0	0	0	0	494	
9	0	0	0	0	484	
10	0	0	0	0	494	
11	0	0	0	0	492	
12	0	0	0	0	504	
13	0	0	0	0	496	
14	0	0	0	0	523	
15	0	0	0	0	496	
0	0	0	0	0	522	
1	0	0	0	0	503	
2	0	0	0	0	536	
3	0	0	0	0	498	
4	0	0	0	0	520	
5	0	0	0	0	481	
6	0	0	0	0	538	
7	0	0	0	0	508	
8	0	0	0	0	505	
9	0	0	0	0	499	
10	0	0	0	0	527	
11	0	0	0	0	502	
12	0	0	0	0	511	
13	0	0	0	0	503	
14	0	0	0	0	515	
15	0	0	0	0	516	
0	0	0	0	0	501	
1	0	0	0	0	531	
2	0	0	0	0	526	
3	0	0	0	0	507	
4	0	0	0	0	537	
5	0	0	0	0	505	
6	0	0	0	0	537	
7	0	0	0	0	500	
8	0	0	0	0	540	
9	0	0	0	0	510	
10	0	0	0	0	535	
11	0	0	0	0	508	
12	0	0	0	0	532	
13	0	0	0	0	502	
14	0	0	0	0	519	
15	0	0	0	0	502	
0	0	0	0	0	531	
1	0	0	0	0	480	
2	0	0	0	0	530	
3	0	0	0	0	504	
4	0	0	0	0	521	
5	0	0	0	0	514	
6	0	0	0	0	535	
7	0	0	0	0	504	
8	0	0	0	0	528	
9	0	0	0	0	510	
10	0	0	0	0	531	
11	0	0	0	0	505	
12	0	0	0	0	516	
13	0	0	0	0	518	
14	0	0	0	0	540	
15	0	0	0	0	504	
0	0	0	0	0	519	
1	0	0	0	0	506	
2	0	0	0	0	532	
3	0	0	0	0	519	
4	0	0	0	0	522	
5	0	0	0	0	507	
6	0	0	0	0	524	
7	0	0	0	0	503	
8	0	0	0	0	534	
9	0	0	0	0	504	
10	0	0	0	0	541	
11	0	0	0	0	521	
12	0	0	0	0	546	
13	0	0	0	0	534	
14	0	0	0	0	536	
15	0	0	0	0	538	
0	0	0	0	0	531	
1	0	0	0	0	503	
2	0	0	0	0	500	
3	0	0	0	0	502	
4	0	0	0	0	519	
5	0	0	0	0	506	
6	0	0	0	0	531	
7	0	0	0	0	432	
8	0	0	0	0	510	
9	0	0	0	0	714	
10	0	0	0	0	921	
11	0	0	0	0	714	
12	0	0	0	0	539	
13	0	0	0	0	435	
14	0	0	0	0	431	
15	0	0	0	0	428	
0	0	0	0	0	448	
1	0	0	0	0	443	
2	0	0	0	0	468	
3	0	0	0	0	457	
4	0	0	0	0	469	
5	0	0	0	0	472	
6	0	0	0	0	497	
7	0	0	0	0	484	
8	0	0	0	0	509	
9	0	0	0	0	485	
10	0	0	0	0	508	
11	0	0	0	0	491	
12	0	0	0	0	505	
13	0	0	0	0	500	
14	0	0	0	0	504	
15	0	0	0	0	482	
0	0	0	0	0	524	
1	0	0	0	0	488	
2	0	0	0	0	504	
3	0	0	0	0	496	
4	0	0	0	0	518	
5	0	0	0	0	497	
6	0	0	0	0	510	
7	0	0	0	0	503	
8	0	0	0	0	520	
9	0	0	0	0	486	
10	0	0	0	0	500	
11	0	0	0	0	481	
12	0	0	0	0	483	
13	0	0	0	0	460	
14	0	0	0	0	472	
15	0	0	0	0	460	
0	0	0	0	0	469	
1	0	0	0	0	455	
2	0	0	0	0	472	
3	0	0	0	0	459	
4	0	0	0	0	479	
5	0	0	0	0	480	
6	0	0	0	0	491	
7	0	0	0	0	485	
8	0	0	0	0	499	
9	0	0	0	0	490	
10	0	0	0	0	510	
11	0	0	0	0	495	
12	0	0	0	0	514	
13	0	0	0	0	506	
14	0	0	0	0	516	
15	0	0	0	0	511	
0	0	0	0	0	530	
1	0	0	0	0	518	
2	0	0	0	0	532	
3	0	0	0	0	521	
4	0	0	0	0	536	
5	0	0	0	0	522	
6	0	0	0	0	535	
7	0	0	0	0	521	
8	0	0	0	0	540	
9	0	0	0	0	523	
10	0	0	0	0	536	
11	0	0	0	0	522	
12	0	0	0	0	539	
13	0	0	0	0	524	
14	0	0	0	0	541	
15	0	0	0	0	517	
0	0	0	0	0	540	
1	0	0	0	0	512	
2	0	0	0	0	531	
3	0	0	0	0	532	
4	0	0	0	0	533	
5	0	0	0	0	512	
6	0	0	0	0	528	
7	0	0	0	0	509	
8	0	0	0	0	528	
9	0	0	0	0	519	
10	0	0	0	0	523	
11	0	0	0	0	519	
12	0	0	0	0	531	
13	0	0	0	0	512	
14	0	0	0	0	514	
15	0	0	0	0	515	
0	0	0	0	0	521	
1	0	0	0	0	509	
2	0	0	0	0	525	
3	0	0	0	0	495	
4	0	0	0	0	529	
5	0	0	0	0	514	
6	0	0	0	0	518	
7	0	0	0	0	517	
8	0	0	0	0	526	
9	0	0	0	0	513	
10	0	0	0	0	523	
11	0	0	0	0	504	
12	0	0	0	0	500	
13	0	0	0	0	505	
14	0	0	0	0	513	
15	0	0	0	0	499	
0	0	0	0	0	516	
1	0	0	0	0	502	
2	0	0	0	0	505	
3	0	0	0	0	497	
4	0	0	0	0	495	
5	0	0	0	0	487	
6	0	0	0	0	510	
7	0	0	0	0	493	
8	0	0	0	0	512	
9	0	0	0	0	509	
10	0	0	0	0	544	
11	0	0	0	0	511	
12	0	0	0	0	518	
13	0	0	0	0	491	
14	0	0	0	0	500	
15	0	0	0	0	484	
0	0	0	0	0	496	
1	0	0	0	0	495	
2	0	0	0	0	496	
3	0	0	0	0	495	
4	0	0	0	0	450	
5	0	0	0	0	479	
6	0	0	0	0	696	
7	0	0	0	0	876	
8	0	0	0	0	742	
9	0	0	0	0	543	
10	0	0	0	0	436	
11	0	0	0	0	408	
12	0	0	0	0	427	
13	0	0	0	0	420	
14	0	0	0	0	444	
15	0	0	0	0	421	
0	0	0	0	0	454	
1	0	0	0	0	455	
2	0	0	0	0	460	
3	0	0	0	0	462	
4	0	0	0	0	479	
5	0	0	0	0	475	
6	0	0	0	0	488	
7	0	0	0	0	489	
8	0	0	0	0	497	
9	0	0	0	0	489	
10	0	0	0	0	515	
11	0	0	0	0	505	
12	0	0	0	0	507	
13	0	0	0	0	500	
14	0	0	0	0	508	
15	0	0	0	0	502	
0	0	0	0	0	510	
1	0	0	0	0	512	
2	0	0	0	0	521	
3	0	0	0	0	512	
4	0	0	0	0	517	
5	0	0	0	0	507	
6	0	0	0	0	532	
7	0	0	0	0	500	
8	0	0	0	0	493	
9	0	0	0	0	478	
10	0	0	0	0	477	
11	0	0	0	0	461	
12	0	0	0	0	473	
13	0	0	0	0	460	
14	0	0	0	0	471	
15	0	0	0	0	472	
0	0	0	0	0	478	
1	0	0	0	0	452	
2	0	0	0	0	499	
3	0	0	0	0	489	
4	0	0	0	0	502	
5	0	0	0	0	485	
6	0	0	0	0	494	
7	0	0	0	0	498	
8	0	0	0	0	513	
9	0	0	0	0	500	
10	0	0	0	0	505	
11	0	0	0	0	493	
12	0	0	0	0	519	
13	0	0	0	0	501	
14	0	0	0	0	511	
15	0	0	0	0	497	
0	0	0	0	0	518	
1	0	0	0	0	504	
2	0	0	0	0	517	
3	0	0	0	0	500	
4	0	0	0	0	505	
5	0	0	0	0	498	
6	0	0	0	0	518	
7	0	0	0	0	509	
8	0	0	0	0	512	
9	0	0	0	0	504	
10	0	0	0	0	524	
11	0	0	0	0	512	
12	0	0	0	0	524	
13	0	0	0	0	516	
14	0	0	0	0	527	
15	0	0	0	0	521	
0	0	0	0	0	529	
1	0	0	0	0	522	
2	0	0	0	0	530	
3	0	0	0	0	520	
4	0	0	0	0	526	
5	0	0	0	0	518	
6	0	0	0	0	536	
7	0	0	0	0	516	
8	0	0	0	0	528	
9	0	0	0	0	524	
10	0	0	0	0	534	
11	0	0	0	0	517	
12	0	0	0	0	516	
13	0	0	0	0	511	
14	0	0	0	0	515	
15	0	0	0	0	514	
0	0	0	0	0	505	
1	0	0	0	0	504	
2	0	0	0	0	515	
3	0	0	0	0	498	
4	0	0	0	0	500	
5	0	0	0	0	493	
6	0	0	0	0	511	
7	0	0	0	0	497	
8	0	0	0	0	502	
9	0	0	0	0	481	
10	0	0	0	0	497	
11	0	0	0	0	506	
12	0	0	0	0	520	
13	0	0	0	0	512	
14	0	0	0	0	550	
15	0	0	0	0	522	
0	0	0	0	0	525	
1	0	0	0	0	494	
2	0	0	0	0	493	
3	0	0	0	0	482	
4	0	0	0	0	489	
5	0	0	0	0	485	
6	0	0	0	0	468	
7	0	0	0	0	486	
8	0	0	0	0	450	
9	0	0	0	0	488	
10	0	0	0	0	710	
11	0	0	0	0	885	
12	0	0	0	0	726	
13	0	0	0	0	538	
14	0	0	0	0	439	
15	0	0	0	0	409	
0	0	0	0	0	422	
1	0	0	0	0	431	
2	0	0	0	0	435	
3	0	0	0	0	438	
4	0	0	0	0	456	
5	0	0	0	0	464	
6	0	0	0	0	472	
7	0	0	0	0	473	
8	0	0	0	0	484	
9	0	0	0	0	487	
10	0	0	0	0	485	
11	0	0	0	0	500	
12	0	0	0	0	513	
13	0	0	0	0	497	
14	0	0	0	0	517	
15	0	0	0	0	508	
0	0	0	0	0	525	
1	0	0	0	0	519	
2	0	0	0	0	522	
3	0	0	0	0	521	
4	0	0	0	0	532	
5	0	0	0	0	521	
6	0	0	0	0	537	
7	0	0	0	0	537	
8	0	0	0	0	550	
9	0	0	0	0	539	
10	0	0	0	0	533	
11	0	0	0	0	533	
12	0	0	0	0	529	
13	0	0	0	0	494	
14	0	0	0	0	491	
15	0	0	0	0	486	
0	0	0	0	0	486	
1	0	0	0	0	480	
2	0	0	0	0	479	
3	0	0	0	0	492	
4	0	0	0	0	493	
5	0	0	0	0	494	
6	0	0	0	0	502	
7	0	0	0	0	491	
8	0	0	0	0	499	
9	0	0	0	0	497	
10	0	0	0	0	500	
11	0	0	0	0	499	
12	0	0	0	0	499	
13	0	0	0	0	502	
14	0	0	0	0	515	
15	0	0	0	0	504	
0	0	0	0	0	508	
1	0	0	0	0	507	
2	0	0	0	0	506	
3	0	0	0	0	504	
4	0	0	0	0	508	
5	0	0	0	0	499	
6	0	0	0	0	511	
7	0	0	0	0	497	
8	0	0	0	0	511	
9	0	0	0	0	509	
10	0	0	0	0	511	
11	0	0	0	0	507	
12	0	0	0	0	510	
13	0	0	0	0	504	
14	0	0	0	0	513	
15	0	0	0	0	512	
0	0	0	0	0	508	
1	0	0	0	0	506	
2	0	0	0	0	515	
3	0	0	0	0	509	
4	0	0	0	0	516	
5	0	0	0	0	515	
6	0	0	0	0	521	
7	0	0	0	0	520	
8	0	0	0	0	520	
9	0	0	0	0	523	
10	0	0	0	0	525	
11	0	0	0	0	512	
12	0	0	0	0	529	
13	0	0	0	0	518	
14	0	0	0	0	525	
15	0	0	0	0	525	
0	0	0	0	0	516	
1	0	0	0	0	515	
2	0	0	0	0	533	
3	0	0	0	0	519	
4	0	0	0	0	521	
5	0	0	0	0	517	
6	0	0	0	0	518	
7	0	0	0	0	513	
8	0	0	0	0	524	
9	0	0	0	0	514	
10	0	0	0	0	516	
11	0	0	0	0	509	
12	0	0	0	0	522	
13	0	0	0	0	518	
14	0	0	0	0	508	
15	0	0	0	0	505	
0	0	0	0	0	515	
1	0	0	0	0	504	
2	0	0	0	0	516	
3	0	0	0	0	510	
4	0	0	0	0	514	
5	0	0	0	0	509	
6	0	0	0	0	520	
7	0	0	0	0	499	
8	0	0	0	0	524	
9	0	0	0	0	532	
10	0	0	0	0	532	
11	0	0	0	0	547	
12	0	0	0	0	544	
13	0	0	0	0	529	
14	0	0	0	0	519	
15	0	0	0	0	499	
0	0	0	0	0	494	
1	0	0	0	0	497	
2	0	0	0	0	497	
3	0	0	0	0	499	
4	0	0	0	0	503	
5	0	0	0	0	466	
6	0	0	0	0	432	
7	0	0	0	0	609	
8	0	0	0	0	831	
9	0	0	0	0	850	
10	0	0	0	0	613	
11	0	0	0	0	460	
12	0	0	0	0	399	
13	0	0	0	0	405	
14	0	0	0	0	416	
15	0	0	0	0	413	
0	0	0	0	0	436	
1	0	0	0	0	446	
2	0	0	0	0	447	
3	0	0	0	0	454	
4	0	0	0	0	469	
5	0	0	0	0	478	
6	0	0	0	0	484	
7	0	0	0	0	492	
8	0	0	0	0	499	
9	0	0	0	0	505	
10	0	0	0	0	501	
11	0	0	0	0	499	
12	0	0	0	0	511	
13	0	0	0	0	521	
14	0	0	0	0	512	
15	0	0	0	0	522	
0	0	0	0	0	523	
1	0	0	0	0	518	
2	0	0	0	0	517	
3	0	0	0	0	522	
4	0	0	0	0	526	
5	0	0	0	0	522	
6	0	0	0	0	527	
7	0	0	0	0	528	
8	0	0	0	0	526	
9	0	0	0	0	507	
10	0	0	0	0	488	
11	0	0	0	0	475	
12	0	0	0	0	467	
13	0	0	0	0	456	
14	0	0	0	0	461	
15	0	0	0	0	468	
0	0	0	0	0	463	
1	0	0	0	0	455	
2	0	0	0	0	459	
3	0	0	0	0	456	
4	0	0	0	0	473	
5	0	0	0	0	481	
6	0	0	0	0	474	
7	0	0	0	0	484	
8	0	0	0	0	498	
9	0	0	0	0	498	
10	0	0	0	0	507	
11	0	0	0	0	512	
12	0	0	0	0	509	
13	0	0	0	0	524	
14	0	0	0	0	511	
15	0	0	0	0	518	
0	0	0	0	0	515	
1	0	0	0	0	519	
2	0	0	0	0	525	
3	0	0	0	0	514	
4	0	0	0	0	511	
5	0	0	0	0	515	
6	0	0	0	0	513	
7	0	0	0	0	508	
8	0	0	0	0	507	
9	0	0	0	0	519	
10	0	0	0	0	509	
11	0	0	0	0	518	
12	0	0	0	0	511	
13	0	0	0	0	523	
14	0	0	0	0	517	
15	0	0	0	0	518	
0	0	0	0	0	511	
1	0	0	0	0	524	
2	0	0	0	0	513	
3	0	0	0	0	519	
4	0	0	0	0	512	
5	0	0	0	0	524	
6	0	0	0	0	516	
7	0	0	0	0	519	
8	0	0	0	0	511	
9	0	0	0	0	516	
10	0	0	0	0	520	
11	0	0	0	0	513	
12	0	0	0	0	520	
13	0	0	0	0	514	
14	0	0	0	0	515	
15	0	0	0	0	525	
0	0	0	0	0	520	
1	0	0	0	0	512	
2	0	0	0	0	515	
3	0	0	0	0	509	
4	0	0	0	0	498	
5	0	0	0	0	509	
6	0	0	0	0	511	
7	0	0	0	0	517	
8	0	0	0	0	493	
9	0	0	0	0	513	
10	0	0	0	0	498	
11	0	0	0	0	511	
12	0	0	0	0	512	
13	0	0	0	0	519	
14	0	0	0	0	504	
15	0	0	0	0	512	
0	0	0	0	0	510	
1	0	0	0	0	514	
2	0	0	0	0	511	
3	0	0	0	0	521	
4	0	0	0	0	511	
5	0	0	0	0	522	
6	0	0	0	0	546	
7	0	0	0	0	546	
8	0	0	0	0	517	
9	0	0	0	0	498	
10	0	0	0	0	479	
11	0	0	0	0	489	
12	0	0	0	0	488	
13	0	0	0	0	499	
14	0	0	0	0	483	
15	0	0	0	0	493	
0	0	0	0	0	434	
1	0	0	0	0	566	
2	0	0	0	0	789	
3	0	0	0	0	872	
4	0	0	0	0	681	
5	0	0	0	0	529	
6	0	0	0	0	423	
7	0	0	0	0	424	
8	0	0	0	0	420	
9	0	0	0	0	439	
10	0	0	0	0	431	
11	0	0	0	0	453	
12	0	0	0	0	450	
13	0	0	0	0	465	
14	0	0	0	0	473	
15	0	0	0	0	476	
0	0	0	0	0	483	
1	0	0	0	0	490	
2	0	0	0	0	487	
3	0	0	0	0	510	
4	0	0	0	0	495	
5	0	0	0	0	499	
6	0	0	0	0	494	
7	0	0	0	0	514	
8	0	0	0	0	504	
9	0	0	0	0	521	
10	0	0	0	0	505	
11	0	0	0	0	518	
12	0	0	0	0	517	
13	0	0	0	0	524	
14	0	0	0	0	525	
15	0	0	0	0	528	
0	0	0	0	0	516	
1	0	0	0	0	529	
2	0	0	0	0	512	
3	0	0	0	0	519	
4	0	0	0	0	493	
5	0	0	0	0	482	
6	0	0	0	0	468	
7	0	0	0	0	471	
8	0	0	0	0	464	
9	0	0	0	0	475	
10	0	0	0	0	467	
11	0	0	0	0	487	
12	0	0	0	0	480	
13	0	0	0	0	495	
14	0	0	0	0	492	
15	0	0	0	0	498	
0	0	0	0	0	497	
1	0	0	0	0	510	
2	0	0	0	0	508	
3	0	0	0	0	517	
4	0	0	0	0	509	
5	0	0	0	0	530	
6	0	0	0	0	518	
7	0	0	0	0	527	
8	0	0	0	0	516	
9	0	0	0	0	519	
10	0	0	0	0	518	
11	0	0	0	0	522	
12	0	0	0	0	509	
13	0	0	0	0	517	
14	0	0	0	0	504	
15	0	0	0	0	513	
0	0	0	0	0	502	
1	0	0	0	0	518	
2	0	0	0	0	513	
3	0	0	0	0	513	
4	0	0	0	0	500	
5	0	0	0	0	517	
6	0	0	0	0	505	
7	0	0	0	0	515	
8	0	0	0	0	507	
9	0	0	0	0	515	
10	0	0	0	0	513	
11	0	0	0	0	520	
12	0	0	0	0	518	
13	0	0	0	0	538	
14	0	0	0	0	524	
15	0	0	0	0	556	
0	0	0	0	0	552	
1	0	0	0	0	550	
2	0	0	0	0	523	
3	0	0	0	0	518	
4	0	0	0	0	496	
5	0	0	0	0	506	
6	0	0	0	0	487	
7	0	0	0	0	508	
8	0	0	0	0	499	
9	0	0	0	0	511	
10	0	0	0	0	438	
11	0	0	0	0	545	
12	0	0	0	0	774	
13	0	0	0	0	889	
14	0	0	0	0	729	
15	0	0	0	0	563	
0	0	0	0	0	438	
1	0	0	0	0	421	
2	0	0	0	0	423	
3	0	0	0	0	432	
4	0	0	0	0	431	
5	0	0	0	0	449	
6	0	0	0	0	451	
7	0	0	0	0	470	
8	0	0	0	0	463	
9	0	0	0	0	481	
10	0	0	0	0	481	
11	0	0	0	0	492	
12	0	0	0	0	494	
13	0	0	0	0	500	
14	0	0	0	0	506	
15	0	0	0	0	503	
0	0	0	0	0	494	
1	0	0	0	0	518	
2	0	0	0	0	508	
3	0	0	0	0	525	
4	0	0	0	0	523	
5	0	0	0	0	519	
6	0	0	0	0	522	
7	0	0	0	0	544	
8	0	0	0	0	540	
9	0	0	0	0	547	
10	0	0	0	0	535	
11	0	0	0	0	545	
12	0	0	0	0	531	
13	0	0	0	0	525	
14	0	0	0	0	495	
15	0	0	0	0	500	
0	0	0	0	0	479	
1	0	0	0	0	489	
2	0	0	0	0	480	
3	0	0	0	0	503	
4	0	0	0	0	495	
5	0	0	0	0	520	
6	0	0	0	0	507	
7	0	0	0	0	527	
8	0	0	0	0	516	
9	0	0	0	0	541	
10	0	0	0	0	529	
11	0	0	0	0	559	
12	0	0	0	0	532	
13	0	0	0	0	547	
14	0	0	0	0	532	
15	0	0	0	0	549	
0	0	0	0	0	553	
1	0	0	0	0	570	
2	0	0	0	0	562	
3	0	0	0	0	572	
4	0	0	0	0	553	
5	0	0	0	0	562	
6	0	0	0	0	553	
7	0	0	0	0	573	
8	0	0	0	0	541	
9	0	0	0	0	551	
10	0	0	0	0	542	
11	0	0	0	0	545	
12	0	0	0	0	522	
13	0	0	0	0	552	
14	0	0	0	0	531	
15	0	0	0	0	545	
0	0	0	0	0	537	
1	0	0	0	0	542	
2	0	0	0	0	531	
3	0	0	0	0	568	
4	0	0	0	0	549	
5	0	0	0	0	566	
6	0	0	0	0	531	
7	0	0	0	0	529	
8	0	0	0	0	508	
9	0	0	0	0	511	
10	0	0	0	0	506	
11	0	0	0	0	519	
12	0	0	0	0	505	
13	0	0	0	0	492	
14	0	0	0	0	447	
15	0	0	0	0	570	
0	0	0	0	0	750	
1	0	0	0	0	827	
2	0	0	0	0	696	
3	0	0	0	0	539	
4	0	0	0	0	409	
5	0	0	0	0	397	
6	0	0	0	0	382	
7	0	0	0	0	388	
8	0	0	0	0	377	
9	0	0	0	0	411	
10	0	0	0	0	396	
11	0	0	0	0	432	
12	0	0	0	0	426	
13	0	0	0	0	440	
14	0	0	0	0	439	
15	0	0	0	0	462	
0	0	0	0	0	442	
1	0	0	0	0	486	
2	0	0	0	0	475	
3	0	0	0	0	493	
4	0	0	0	0	481	
5	0	0	0	0	482	
6	0	0	0	0	487	
7	0	0	0	0	523	
8	0	0	0	0	508	
9	0	0	0	0	536	
10	0	0	0	0	513	
11	0	0	0	0	541	
12	0	0	0	0	536	
13	0	0	0	0	556	
14	0	0	0	0	520	
15	0	0	0	0	563	
0	0	0	0	0	519	
1	0	0	0	0	511	
2	0	0	0	0	474	
3	0	0	0	0	479	
4	0	0	0	0	435	
5	0	0	0	0	468	
6	0	0	0	0	474	
7	0	0	0	0	469	
8	0	0	0	0	449	
9	0	0	0	0	451	
10	0	0	0	0	464	
11	0	0	0	0	466	
12	0	0	0	0	458	
13	0	0	0	0	458	
14	0	0	0	0	412	
15	0	0	0	0	509	
0	0	0	0	0	466	
1	0	0	0	0	465	
2	0	0	0	0	447	
3	0	0	0	0	480	
4	0	0	0	0	419	
5	0	0	0	0	499	
6	0	0	0	0	461	
7	0	0	0	0	449	
8	0	0	0	0	520	
9	0	0	0	0	494	
10	0	0	0	0	480	
11	0	0	0	0	496	
12	0	0	0	0	479	
13	0	0	0	0	489	
14	0	0	0	0	470	
15	0	0	0	0	496	
0	0	0	0	0	487	
1	0	0	0	0	499	
2	0	0	0	0	440	
3	0	0	0	0	542	
4	0	0	0	0	518	
5	0	0	0	0	508	
6	0	0	0	0	471	
7	0	0	0	0	462	
8	0	0	0	0	456	
9	0	0	0	0	478	
10	0	0	0	0	459	
11	0	0	0	0	478	
12	0	0	0	0	470	
13	0	0	0	0	475	
14	0	0	0	0	524	
15	0	0	0	0	683	
0	0	0	0	0	805	
1	0	0	0	0	759	
2	0	0	0	0	613	
3	0	0	0	0	444	
4	0	0	0	0	360	
5	0	0	0	0	383	
6	0	0	0	0	422	
7	0	0	0	0	446	
8	0	0	0	0	411	
9	0	0	0	0	449	
10	0	0	0	0	424	
11	0	0	0	0	471	
12	0	0	0	0	461	
13	0	0	0	0	482	
14	0	0	0	0	483	
15	0	0	0	0	483	
0	0	0	0	0	493	
1	0	0	0	0	488	
2	0	0	0	0	511	
3	0	0	0	0	518	
4	0	0	0	0	501	
5	0	0	0	0	541	
6	0	0	0	0	491	
7	0	0	0	0	530	
8	0	0	0	0	534	
9	0	0	0	0	520	
10	0	0	0	0	526	
11	0	0	0	0	554	
12	0	0	0	0	530	
13	0	0	0	0	552	
14	0	0	0	0	511	
15	0	0	0	0	528	
0	0	0	0	0	497	
1	0	0	0	0	508	
2	0	0	0	0	466	
3	0	0	0	0	472	
4	0	0	0	0	462	
5	0	0	0	0	481	
6	0	0	0	0	465	
7	0	0	0	0	493	
8	0	0	0	0	472	
9	0	0	0	0	479	
10	0	0	0	0	465	
11	0	0	0	0	524	
12	0	0	0	0	488	
13	0	0	0	0	479	
14	0	0	0	0	470	
15	0	0	0	0	488	
0	0	0	0	0	465	
1	0	0	0	0	478	
2	0	0	0	0	476	
3	0	0	0	0	480	
4	0	0	0	0	441	
5	0	0	0	0	481	
6	0	0	0	0	469	
7	0	0	0	0	463	
8	0	0	0	0	497	
9	0	0	0	0	495	
10	0	0	0	0	484	
11	0	0	0	0	508	
12	0	0	0	0	477	
13	0	0	0	0	515	
14	0	0	0	0	491	
15	0	0	0	0	518	
0	0	0	0	0	493	
1	0	0	0	0	551	
2	0	0	0	0	532	
3	0	0	0	0	528	
4	0	0	0	0	522	
5	0	0	0	0	519	
6	0	0	0	0	467	
7	0	0	0	0	531	
8	0	0	0	0	484	
9	0	0	0	0	508	
10	0	0	0	0	508	
11	0	0	0	0	498	
12	0	0	0	0	463	
13	0	0	0	0	590	
14	0	0	0	0	759	
15	0	0	0	0	824	
0	0	0	0	0	731	
1	0	0	0	0	622	
2	0	0	0	0	416	
3	0	0	0	0	437	
4	0	0	0	0	408	
5	0	0	0	0	440	
6	0	0	0	0	455	
7	0	0	0	0	471	
8	0	0	0	0	425	
9	0	0	0	0	473	
10	0	0	0	0	470	
11	0	0	0	0	504	
12	0	0	0	0	485	
13	0	0	0	0	506	
14	0	0	0	0	498	
15	0	0	0	0	502	
0	0	0	0	0	499	
1	0	0	0	0	540	
2	0	0	0	0	508	
3	0	0	0	0	534	
4	0	0	0	0	508	
5	0	0	0	0	535	
6	0	0	0	0	518	
7	0	0	0	0	531	
8	0	0	0	0	520	
9	0	0	0	0	554	
10	0	0	0	0	522	
11	0	0	0	0	550	
12	0	0	0	0	529	
13	0	0	0	0	556	
14	0	0	0	0	490	
15	0	0	0	0	514	
0	0	0	0	0	463	
1	0	0	0	0	517	
2	0	0	0	0	471	
3	0	0	0	0	495	
4	0	0	0	0	483	
5	0	0	0	0	490	
6	0	0	0	0	477	
7	0	0	0	0	483	
8	0	0	0	0	500	
9	0	0	0	0	515	
10	0	0	0	0	493	
11	0	0	0	0	544	
12	0	0	0	0	489	
13	0	0	0	0	529	
14	0	0	0	0	509	
15	0	0	0	0	515	
0	0	0	0	0	542	
1	0	0	0	0	519	
2	0	0	0	0	489	
3	0	0	0	0	547	
4	0	0	0	0	518	
5	0	0	0	0	557	
6	0	0	0	0	523	
7	0	0	0	0	521	
8	0	0	0	0	530	
9	0	0	0	0	536	
10	0	0	0	0	515	
11	0	0	0	0	534	
12	0	0	0	0	540	
13	0	0	0	0	536	
14	0	0	0	0	550	
15	0	0	0	0	571	
0	0	0	0	0	575	
1	0	0	0	0	540	
2	0	0	0	0	494	
3	0	0	0	0	489	
4	0	0	0	0	472	
5	0	0	0	0	523	
6	0	0	0	0	496	
7	0	0	0	0	482	
8	0	0	0	0	500	
9	0	0	0	0	465	
10	0	0	0	0	524	
11	0	0	0	0	735	
12	0	0	0	0	879	
13	0	0	0	0	707	
14	0	0	0	0	529	
15	0	0	0	0	426	
0	0	0	0	0	386	
1	0	0	0	0	430	
2	0	0	0	0	415	
3	0	0	0	0	451	
4	0	0	0	0	449	
5	0	0	0	0	471	
6	0	0	0	0	422	
7	0	0	0	0	496	
8	0	0	0	0	463	
9	0	0	0	0	497	
10	0	0	0	0	456	
11	0	0	0	0	498	
12	0	0	0	0	491	
13	0	0	0	0	519	
14	0	0	0	0	546	
15	0	0	0	0	537	
0	0	0	0	0	536	
1	0	0	0	0	518	
2	0	0	0	0	533	
3	0	0	0	0	520	
4	0	0	0	0	561	
5	0	0	0	0	568	
6	0	0	0	0	556	
7	0	0	0	0	578	
8	0	0	0	0	499	
9	0	0	0	0	557	
10	0	0	0	0	570	
11	0	0	0	0	499	
12	0	0	0	0	499	
13	0	0	0	0	520	
14	0	0	0	0	532	
15	0	0	0	0	475	
0	0	0	0	0	498	
1	0	0	0	0	521	
2	0	0	0	0	481	
3	0	0	0	0	500	
4	0	0	0	0	493	
5	0	0	0	0	495	
6	0	0	0	0	542	
7	0	0	0	0	534	
8	0	0	0	0	477	
9	0	0	0	0	536	
10	0	0	0	0	493	
11	0	0	0	0	534	
12	0	0	0	0	501	
13	0	0	0	0	499	
14	0	0	0	0	477	
15	0	0	0	0	565	
0	0	0	0	0	501	
1	0	0	0	0	548	
2	0	0	0	0	488	
3	0	0	0	0	514	
4	0	0	0	0	471	
5	0	0	0	0	525	
6	0	0	0	0	503	
7	0	0	0	0	526	
8	0	0	0	0	545	
9	0	0	0	0	499	
10	0	0	0	0	471	
11	0	0	0	0	513	
12	0	0	0	0	490	
13	0	0	0	0	512	
14	0	0	0	0	463	
15	0	0	0	0	472	
0	0	0	0	0	418	
1	0	0	0	0	512	
2	0	0	0	0	504	
3	0	0	0	0	382	
4	0	0	0	0	499	
5	0	0	0	0	773	
6	0	0	0	0	837	
7	0	0	0	0	748	
8	0	0	0	0	529	
9	0	0	0	0	356	
10	0	0	0	0	413	
11	0	0	0	0	404	
12	0	0	0	0	387	
13	0	0	0	0	454	
14	0	0	0	0	437	
15	0	0	0	0	376	
0	0	0	0	0	457	
1	0	0	0	0	449	
2	0	0	0	0	454	
3	0	0	0	0	464	
4	0	0	0	0	420	
5	0	0	0	0	490	
6	0	0	0	0	580	
7	0	0	0	0	429	
8	0	0	0	0	486	
9	0	0	0	0	519	
10	0	0	0	0	515	
11	0	0	0	0	494	
12	0	0	0	0	438	
13	0	0	0	0	530	
14	0	0	0	0	521	
15	0	0	0	0	548	
0	0	0	0	0	438	
1	0	0	0	0	510	
2	0	0	0	0	482	
3	0	0	0	0	498	
4	0	0	0	0	493	
5	0	0	0	0	424	
6	0	0	0	0	468	
7	0	0	0	0	477	
8	0	0	0	0	430	
9	0	0	0	0	440	
10	0	0	0	0	392	
11	0	0	0	0	484	
12	0	0	0	0	371	
13	0	0	0	0	420	
14	0	0	0	0	453	
15	0	0	0	0	469	
0	0	0	0	0	448	
1	0	0	0	0	524	
2	0	0	0	0	452	
3	0	0	0	0	480	
4	0	0	0	0	549	
5	0	0	0	0	475	
6	0	0	0	0	459	
7	0	0	0	0	520	
8	0	0	0	0	499	
9	0	0	0	0	524	
10	0	0	0	0	499	
11	0	0	0	0	539	
12	0	0	0	0	461	
13	0	0	0	0	512	
14	0	0	0	0	513	
15	0	0	0	0	558	
0	0	0	0	0	529	
1	0	0	0	0	551	
2	0	0	0	0	535	
3	0	0	0	0	544	
4	0	0	0	0	566	
5	0	0	0	0	586	
6	0	0	0	0	522	
7	0	0	0	0	547	
8	0	0	0	0	507	
9	0	0	0	0	566	
10	0	0	0	0	557	
11	0	0	0	0	561	
12	0	0	0	0	493	
13	0	0	0	0	583	
14	0	0	0	0	757	
15	0	0	0	0	1022	
0	0	0	0	0	828	
1	0	0	0	0	677	
2	0	0	0	0	573	
3	0	0	0	0	568	
4	0	0	0	0	572	
5	0	0	0	0	644	
6	0	0	0	0	688	
7	0	0	0	0	718	
8	0	0	0	0	731	
9	0	0	0	0	805	
10	0	0	0	0	782	
11	0	0	0	0	818	
12	0	0	0	0	786	
13	0	0	0	0	802	
14	0	0	0	0	793	
15	0	0	0	0	784	
0	0	0	0	0	763	
1	0	0	0	0	803	
2	0	0	0	0	764	
3	0	0	0	0	779	
4	0	0	0	0	766	
5	0	0	0	0	768	
6	0	0	0	0	724	
7	0	0	0	0	751	
8	0	0	0	0	700	
9	0	0	0	0	719	
10	0	0	0	0	675	
11	0	0	0	0	686	
12	0	0	0	0	623	
13	0	0	0	0	608	
14	0	0	0	0	558	
15	0	0	0	0	534	
0	0	0	0	0	464	
1	0	0	0	0	462	
2	0	0	0	0	417	
3	0	0	0	0	419	
4	0	0	0	0	382	
5	0	0	0	0	403	
6	0	0	0	0	347	
7	0	0	0	0	361	
8	0	0	0	0	318	
9	0	0	0	0	341	
10	0	0	0	0	316	
11	0	0	0	0	335	
12	0	0	0	0	315	
13	0	0	0	0	353	
14	0	0	0	0	334	
15	0	0	0	0	377	
0	0	0	0	0	382	
1	0	0	0	0	428	
2	0	0	0	0	410	
3	0	0	0	0	449	
4	0	0	0	0	428	
5	0	0	0	0	454	
6	0	0	0	0	423	
7	0	0	0	0	459	
8	0	0	0	0	436	
9	0	0	0	0	469	
10	0	0	0	0	439	
11	0	0	0	0	464	
12	0	0	0	0	427	
13	0	0	0	0	427	
14	0	0	0	0	376	
15	0	0	0	0	376	
0	0	0	0	0	337	
1	0	0	0	0	366	
2	0	0	0	0	315	
3	0	0	0	0	342	
4	0	0	0	0	295	
5	0	0	0	0	250	
6	0	0	0	0	289	
7	0	0	0	0	570	
8	0	0	0	0	781	
9	0	0	0	0	561	
10	0	0	0	0	301	
11	0	0	0	0	212	
12	0	0	0	0	176	
13	0	0	0	0	222	
14	0	0	0	0	216	
15	0	0	0	0	253	
0	0	0	0	0	246	
1	0	0	0	0	291	
2	0	0	0	0	289	
3	0	0	0	0	331	
4	0	0	0	0	313	
5	0	0	0	0	370	
6	0	0	0	0	355	
7	0	0	0	0	385	
8	0	0	0	0	366	
9	0	0	0	0	436	
10	0	0	0	0	422	
11	0	0	0	0	483	
12	0	0	0	0	446	
13	0	0	0	0	503	
14	0	0	0	0	489	
15	0	0	0	0	532	
0	0	0	0	0	521	
1	0	0	0	0	561	
2	0	0	0	0	533	
3	0	0	0	0	557	
4	0	0	0	0	528	
5	0	0	0	0	555	
6	0	0	0	0	521	
7	0	0	0	0	532	
8	0	0	0	0	492	
9	0	0	0	0	506	
10	0	0	0	0	491	
11	0	0	0	0	506	
12	0	0	0	0	479	
13	0	0	0	0	519	
14	0	0	0	0	504	
15	0	0	0	0	537	
0	0	0	0	0	523	
1	0	0	0	0	569	
2	0	0	0	0	545	
3	0	0	0	0	564	
4	0	0	0	0	572	
5	0	0	0	0	585	
6	0	0	0	0	571	
7	0	0	0	0	591	
8	0	0	0	0	561	
9	0	0	0	0	579	
10	0	0	0	0	553	
11	0	0	0	0	569	
12	0	0	0	0	535	
13	0	0	0	0	553	
14	0	0	0	0	520	
15	0	0	0	0	528	
0	0	0	0	0	507	
1	0	0	0	0	524	
2	0	0	0	0	492	
3	0	0	0	0	508	
4	0	0	0	0	474	
5	0	0	0	0	506	
6	0	0	0	0	481	
7	0	0	0	0	521	
8	0	0	0	0	467	
9	0	0	0	0	509	
10	0	0	0	0	480	
11	0	0	0	0	521	
12	0	0	0	0	494	
13	0	0	0	0	539	
14	0	0	0	0	491	
15	0	0	0	0	537	
0	0	0	0	0	526	
1	0	0	0	0	548	
2	0	0	0	0	517	
3	0	0	0	0	547	
4	0	0	0	0	528	
5	0	0	0	0	542	
6	0	0	0	0	523	
7	0	0	0	0	541	
8	0	0	0	0	512	
9	0	0	0	0	527	
10	0	0	0	0	498	
11	0	0	0	0	523	
12	0	0	0	0	495	
13	0	0	0	0	518	
14	0	0	0	0	484	
15	0	0	0	0	514	
0	0	0	0	0	496	
1	0	0	0	0	518	
2	0	0	0	0	494	
3	0	0	0	0	524	
4	0	0	0	0	496	
5	0	0	0	0	526	
6	0	0	0	0	504	
7	0	0	0	0	547	
8	0	0	0	0	509	
9	0	0	0	0	556	
10	0	0	0	0	536	
11	0	0	0	0	554	
12	0	0	0	0	509	
13	0	0	0	0	517	
14	0	0	0	0	480	
15	0	0	0	0	512	
0	0	0	0	0	469	
1	0	0	0	0	487	
2	0	0	0	0	475	
3	0	0	0	0	474	
4	0	0	0	0	383	
5	0	0	0	0	519	
6	0	0	0	0	760	
7	0	0	0	0	930	
8	0	0	0	0	631	
9	0	0	0	0	449	
10	0	0	0	0	368	
11	0	0	0	0	392	
12	0	0	0	0	359	
13	0	0	0	0	389	
14	0	0	0	0	383	
15	0	0	0	0	414	
0	0	0	0	0	401	
1	0	0	0	0	456	
2	0	0	0	0	415	
3	0	0	0	0	465	
4	0	0	0	0	447	
5	0	0	0	0	480	
6	0	0	0	0	455	
7	0	0	0	0	496	
8	0	0	0	0	477	
9	0	0	0	0	508	
10	0	0	0	0	483	
11	0	0	0	0	514	
12	0	0	0	0	488	
13	0	0	0	0	529	
14	0	0	0	0	506	
15	0	0	0	0	527	
0	0	0	0	0	516	
1	0	0	0	0	547	
2	0	0	0	0	512	
3	0	0	0	0	561	
4	0	0	0	0	524	
5	0	0	0	0	553	
6	0	0	0	0	527	
7	0	0	0	0	556	
8	0	0	0	0	463	
9	0	0	0	0	502	
10	0	0	0	0	469	
11	0	0	0	0	497	
12	0	0	0	0	471	
13	0	0	0	0	496	
14	0	0	0	0	477	
15	0	0	0	0	489	
0	0	0	0	0	488	
1	0	0	0	0	511	
2	0	0	0	0	497	
3	0	0	0	0	518	
4	0	0	0	0	492	
5	0	0	0	0	533	
6	0	0	0	0	505	
7	0	0	0	0	524	
8	0	0	0	0	516	
9	0	0	0	0	543	
10	0	0	0	0	505	
11	0	0	0	0	542	
12	0	0	0	0	506	
13	0	0	0	0	529	
14	0	0	0	0	513	
15	0	0	0	0	529	
0	0	0	0	0	505	
1	0	0	0	0	525	
2	0	0	0	0	496	
3	0	0	0	0	530	
4	0	0	0	0	499	
5	0	0	0	0	516	
6	0	0	0	0	491	
7	0	0	0	0	536	
8	0	0	0	0	505	
9	0	0	0	0	534	
10	0	0	0	0	506	
11	0	0	0	0	566	
12	0	0	0	0	457	
13	0	0	0	0	526	
14	0	0	0	0	506	
15	0	0	0	0	535	
0	0	0	0	0	513	
1	0	0	0	0	542	
2	0	0	0	0	510	
3	0	0	0	0	543	
4	0	0	0	0	506	
5	0	0	0	0	536	
6	0	0	0	0	507	
7	0	0	0	0	537	
8	0	0	0	0	505	
9	0	0	0	0	540	
10	0	0	0	0	495	
11	0	0	0	0	527	
12	0	0	0	0	499	
13	0	0	0	0	531	
14	0	0	0	0	504	
15	0	0	0	0	537	
0	0	0	0	0	503	
1	0	0	0	0	526	
2	0	0	0	0	499	
3	0	0	0	0	528	
4	0	0	0	0	503	
5	0	0	0	0	539	
6	0	0	0	0	499	
7	0	0	0	0	543	
8	0	0	0	0	519	
9	0	0	0	0	556	
10	0	0	0	0	547	
11	0	0	0	0	563	
12	0	0	0	0	521	
13	0	0	0	0	539	
14	0	0	0	0	494	
15	0	0	0	0	520	
0	0	0	0	0	481	
1	0	0	0	0	521	
2	0	0	0	0	487	
3	0	0	0	0	524	
4	0	0	0	0	433	
5	0	0	0	0	486	
6	0	0	0	0	655	
7	0	0	0	0	942	
8	0	0	0	0	795	
9	0	0	0	0	591	
10	0	0	0	0	446	
11	0	0	0	0	432	
12	0	0	0	0	406	
13	0	0	0	0	447	
14	0	0	0	0	427	
15	0	0	0	0	460	
0	0	0	0	0	449	
1	0	0	0	0	478	
2	0	0	0	0	465	
3	0	0	0	0	509	
4	0	0	0	0	457	
5	0	0	0	0	495	
6	0	0	0	0	480	
7	0	0	0	0	495	
8	0	0	0	0	478	
9	0	0	0	0	519	
10	0	0	0	0	485	
11	0	0	0	0	526	
12	0	0	0	0	498	
13	0	0	0	0	523	
14	0	0	0	0	499	
15	0	0	0	0	531	
0	0	0	0	0	504	
1	0	0	0	0	515	
2	0	0	0	0	504	
3	0	0	0	0	534	
4	0	0	0	0	511	
5	0	0	0	0	534	
6	0	0	0	0	497	
7	0	0	0	0	526	
8	0	0	0	0	474	
9	0	0	0	0	491	
10	0	0	0	0	459	
11	0	0	0	0	474	
12	0	0	0	0	455	
13	0	0	0	0	485	
14	0	0	0	0	463	
15	0	0	0	0	485	
0	0	0	0	0	460	
1	0	0	0	0	502	
2	0	0	0	0	468	
3	0	0	0	0	507	
4	0	0	0	0	471	
5	0	0	0	0	501	
6	0	0	0	0	481	
7	0	0	0	0	516	
8	0	0	0	0	494	
9	0	0	0	0	520	
10	0	0	0	0	509	
11	0	0	0	0	527	
12	0	0	0	0	496	
13	0	0	0	0	519	
14	0	0	0	0	512	
15	0	0	0	0	537	
0	0	0	0	0	507	
1	0	0	0	0	527	
2	0	0	0	0	511	
3	0	0	0	0	532	
4	0	0	0	0	501	
5	0	0	0	0	536	
6	0	0	0	0	508	
7	0	0	0	0	536	
8	0	0	0	0	502	
9	0	0	0	0	537	
10	0	0	0	0	505	
11	0	0	0	0	527	
12	0	0	0	0	496	
13	0	0	0	0	528	
14	0	0	0	0	504	
15	0	0	0	0	530	
0	0	0	0	0	502	
1	0	0	0	0	531	
2	0	0	0	0	499	
3	0	0	0	0	532	
4	0	0	0	0	504	
5	0	0	0	0	529	
6	0	0	0	0	498	
7	0	0	0	0	528	
8	0	0	0	0	499	
9	0	0	0	0	526	
10	0	0	0	0	510	
11	0	0	0	0	528	
12	0	0	0	0	505	
13	0	0	0	0	527	
14	0	0	0	0	507	
15	0	0	0	0	529	
0	0	0	0	0	497	
1	0	0	0	0	532	
2	0	0	0	0	496	
3	0	0	0	0	530	
4	0	0	0	0	507	
5	0	0	0	0	517	
6	0	0	0	0	499	
7	0	0	0	0	542	
8	0	0	0	0	512	
9	0	0	0	0	559	
10	0	0	0	0	534	
11	0	0	0	0	535	
12	0	0	0	0	497	
13	0	0	0	0	519	
14	0	0	0	0	483	
15	0	0	0	0	501	
0	0	0	0	0	487	
1	0	0	0	0	507	
2	0	0	0	0	485	
3	0	0	0	0	467	
4	0	0	0	0	442	
5	0	0	0	0	654	
6	0	0	0	0	860	
7	0	0	0	0	827	
8	0	0	0	0	572	
9	0	0	0	0	458	
10	0	0	0	0	395	
11	0	0	0	0	432	
12	0	0	0	0	404	
13	0	0	0	0	450	
14	0	0	0	0	420	
15	0	0	0	0	455	
0	0	0	0	0	445	
1	0	0	0	0	475	
2	0	0	0	0	450	
3	0	0	0	0	490	
4	0	0	0	0	477	
5	0	0	0	0	500	
6	0	0	0	0	480	
7	0	0	0	0	504	
8	0	0	0	0	483	
9	0	0	0	0	519	
10	0	0	0	0	493	
11	0	0	0	0	521	
12	0	0	0	0	501	
13	0	0	0	0	528	
14	0	0	0	0	503	
15	0	0	0	0	534	
0	0	0	0	0	519	
1	0	0	0	0	533	
2	0	0	0	0	504	
3	0	0	0	0	533	
4	0	0	0	0	507	
5	0	0	0	0	529	
6	0	0	0	0	503	
7	0	0	0	0	516	
8	0	0	0	0	480	
9	0	0	0	0	489	
10	0	0	0	0	457	
11	0	0	0	0	495	
12	0	0	0	0	463	
13	0	0	0	0	496	
14	0	0	0	0	481	
15	0	0	0	0	506	
0	0	0	0	0	481	
1	0	0	0	0	517	
2	0	0	0	0	485	
3	0	0	0	0	523	
4	0	0	0	0	496	
5	0	0	0	0	528	
6	0	0	0	0	508	
7	0	0	0	0	531	
8	0	0	0	0	500	
9	0	0	0	0	540	
10	0	0	0	0	502	
11	0	0	0	0	544	
12	0	0	0	0	511	
13	0	0	0	0	530	
14	0	0	0	0	511	
15	0	0	0	0	530	
0	0	0	0	0	507	
1	0	0	0	0	533	
2	0	0	0	0	508	
3	0	0	0	0	534	
4	0	0	0	0	518	
5	0	0	0	0	519	
6	0	0	0	0	507	
7	0	0	0	0	525	
8	0	0	0	0	499	
9	0	0	0	0	525	
10	0	0	0	0	503	
11	0	0	0	0	524	
12	0	0	0	0	495	
13	0	0	0	0	531	
14	0	0	0	0	508	
15	0	0	0	0	531	
0	0	0	0	0	494	
1	0	0	0	0	537	
2	0	0	0	0	504	
3	0	0	0	0	520	
4	0	0	0	0	505	
5	0	0	0	0	536	
6	0	0	0	0	498	
7	0	0	0	0	531	
8	0	0	0	0	505	
9	0	0	0	0	531	
10	0	0	0	0	499	
11	0	0	0	0	524	
12	0	0	0	0	502	
13	0	0	0	0	534	
14	0	0	0	0	505	
15	0	0	0	0	530	
0	0	0	0	0	507	
1	0	0	0	0	527	
2	0	0	0	0	505	
3	0	0	0	0	536	
4	0	0	0	0	502	
5	0	0	0	0	534	
6	0	0	0	0	506	
7	0	0	0	0	528	
8	0	0	0	0	510	
9	0	0	0	0	538	
10	0	0	0	0	497	
11	0	0	0	0	539	
12	0	0	0	0	522	
13	0	0	0	0	546	
14	0	0	0	0	536	
15	0	0	0	0	560	
0	0	0	0	0	513	
1	0	0	0	0	527	
2	0	0	0	0	492	
3	0	0	0	0	507	
4	0	0	0	0	479	
5	0	0	0	0	518	
6	0	0	0	0	495	
7	0	0	0	0	508	
8	0	0	0	0	428	
9	0	0	0	0	518	
10	0	0	0	0	711	
11	0	0	0	0	945	
12	0	0	0	0	706	
13	0	0	0	0	535	
14	0	0	0	0	423	
15	0	0	0	0	422	
0	0	0	0	0	401	
1	0	0	0	0	434	
2	0	0	0	0	416	
3	0	0	0	0	450	
4	0	0	0	0	439	
5	0	0	0	0	470	
6	0	0	0	0	449	
7	0	0	0	0	479	
8	0	0	0	0	461	
9	0	0	0	0	489	
10	0	0	0	0	482	
11	0	0	0	0	509	
12	0	0	0	0	492	
13	0	0	0	0	517	
14	0	0	0	0	494	
15	0	0	0	0	526	
0	0	0	0	0	499	
1	0	0	0	0	534	
2	0	0	0	0	502	
3	0	0	0	0	524	
4	0	0	0	0	511	
5	0	0	0	0	535	
6	0	0	0	0	518	
7	0	0	0	0	533	
8	0	0	0	0	512	
9	0	0	0	0	536	
10	0	0	0	0	511	
11	0	0	0	0	530	
12	0	0	0	0	489	
13	0	0	0	0	511	
14	0	0	0	0	468	
15	0	0	0	0	509	
0	0	0	0	0	468	
1	0	0	0	0	495	
2	0	0	0	0	480	
3	0	0	0	0	507	
4	0	0	0	0	480	
5	0	0	0	0	507	
6	0	0	0	0	487	
7	0	0	0	0	517	
8	0	0	0	0	494	
9	0	0	0	0	518	
10	0	0	0	0	494	
11	0	0	0	0	513	
12	0	0	0	0	488	
13	0	0	0	0	529	
14	0	0	0	0	499	
15	0	0	0	0	524	
0	0	0	0	0	509	
1	0	0	0	0	532	
2	0	0	0	0	503	
3	0	0	0	0	521	
4	0	0	0	0	501	
5	0	0	0	0	520	
6	0	0	0	0	494	
7	0	0	0	0	519	
8	0	0	0	0	497	
9	0	0	0	0	523	
10	0	0	0	0	496	
11	0	0	0	0	525	
12	0	0	0	0	496	
13	0	0	0	0	520	
14	0	0	0	0	493	
15	0	0	0	0	510	
0	0	0	0	0	502	
1	0	0	0	0	520	
2	0	0	0	0	497	
3	0	0	0	0	515	
4	0	0	0	0	493	
5	0	0	0	0	521	
6	0	0	0	0	495	
7	0	0	0	0	520	
8	0	0	0	0	493	
9	0	0	0	0	516	
10	0	0	0	0	495	
11	0	0	0	0	534	
12	0	0	0	0	491	
13	0	0	0	0	521	
14	0	0	0	0	490	
15	0	0	0	0	521	
0	0	0	0	0	504	
1	0	0	0	0	528	
2	0	0	0	0	500	
3	0	0	0	0	528	
4	0	0	0	0	502	
5	0	0	0	0	532	
6	0	0	0	0	496	
7	0	0	0	0	526	
8	0	0	0	0	503	
9	0	0	0	0	522	
10	0	0	0	0	497	
11	0	0	0	0	527	
12	0	0	0	0	506	
13	0	0	0	0	534	
14	0	0	0	0	504	
15	0	0	0	0	520	
0	0	0	0	0	501	
1	0	0	0	0	524	
2	0	0	0	0	496	
3	0	0	0	0	519	
4	0	0	0	0	498	
5	0	0	0	0	536	
6	0	0	0	0	509	
7	0	0	0	0	548	
8	0	0	0	0	529	
9	0	0	0	0	541	
10	0	0	0	0	503	
11	0	0	0	0	509	
12	0	0	0	0	481	
13	0	0	0	0	509	
14	0	0	0	0	481	
15	0	0	0	0	504	
0	0	0	0	0	484	
1	0	0	0	0	467	
2	0	0	0	0	434	
3	0	0	0	0	641	
4	0	0	0	0	848	
5	0	0	0	0	808	
6	0	0	0	0	567	
7	0	0	0	0	453	
8	0	0	0	0	399	
9	0	0	0	0	431	
10	0	0	0	0	398	
11	0	0	0	0	438	
12	0	0	0	0	423	
13	0	0	0	0	456	
14	0	0	0	0	446	
15	0	0	0	0	470	
0	0	0	0	0	457	
1	0	0	0	0	486	
2	0	0	0	0	473	
3	0	0	0	0	500	
4	0	0	0	0	479	
5	0	0	0	0	504	
6	0	0	0	0	491	
7	0	0	0	0	526	
8	0	0	0	0	496	
9	0	0	0	0	520	
10	0	0	0	0	503	
11	0	0	0	0	529	
12	0	0	0	0	507	
13	0	0	0	0	530	
14	0	0	0	0	508	
15	0	0	0	0	536	
0	0	0	0	0	514	
1	0	0	0	0	536	
2	0	0	0	0	512	
3	0	0	0	0	537	
4	0	0	0	0	508	
5	0	0	0	0	526	
6	0	0	0	0	480	
7	0	0	0	0	497	
8	0	0	0	0	468	
9	0	0	0	0	495	
10	0	0	0	0	471	
11	0	0	0	0	496	
12	0	0	0	0	476	
13	0	0	0	0	499	
14	0	0	0	0	487	
15	0	0	0	0	507	
0	0	0	0	0	488	
1	0	0	0	0	513	
2	0	0	0	0	490	
3	0	0	0	0	523	
4	0	0	0	0	501	
5	0	0	0	0	524	
6	0	0	0	0	494	
7	0	0	0	0	528	
8	0	0	0	0	502	
9	0	0	0	0	527	
10	0	0	0	0	502	
11	0	0	0	0	527	
12	0	0	0	0	503	
13	0	0	0	0	528	
14	0	0	0	0	504	
15	0	0	0	0	520	
0	0	0	0	0	506	
1	0	0	0	0	528	
2	0	0	0	0	505	
3	0	0	0	0	525	
4	0	0	0	0	503	
5	0	0	0	0	527	
6	0	0	0	0	506	
7	0	0	0	0	532	
8	0	0	0	0	498	
9	0	0	0	0	527	
10	0	0	0	0	499	
11	0	0	0	0	526	
12	0	0	0	0	501	
13	0	0	0	0	523	
14	0	0	0	0	499	
15	0	0	0	0	525	
0	0	0	0	0	502	
1	0	0	0	0	522	
2	0	0	0	0	493	
3	0	0	0	0	524	
4	0	0	0	0	495	
5	0	0	0	0	524	
6	0	0	0	0	492	
7	0	0	0	0	517	
8	0	0	0	0	495	
9	0	0	0	0	520	
10	0	0	0	0	487	
11	0	0	0	0	516	
12	0	0	0	0	497	
13	0	0	0	0	514	
14	0	0	0	0	499	
15	0	0	0	0	523	
0	0	0	0	0	492	
1	0	0	0	0	519	
2	0	0	0	0	490	
3	0	0	0	0	518	
4	0	0	0	0	487	
5	0	0	0	0	515	
6	0	0	0	0	491	
7	0	0	0	0	500	
8	0	0	0	0	499	
9	0	0	0	0	512	
10	0	0	0	0	497	
11	0	0	0	0	510	
12	0	0	0	0	494	
13	0	0	0	0	529	
14	0	0	0	0	500	
15	0	0	0	0	546	
0	0	0	0	0	521	
1	0	0	0	0	532	
2	0	0	0	0	492	
3	0	0	0	0	500	
4	0	0	0	0	472	
5	0	0	0	0	495	
6	0	0	0	0	475	
7	0	0	0	0	495	
8	0	0	0	0	470	
9	0	0	0	0	455	
10	0	0	0	0	458	
11	0	0	0	0	677	
12	0	0	0	0	828	
13	0	0	0	0	739	
14	0	0	0	0	541	
15	0	0	0	0	443	
0	0	0	0	0	388	
1	0	0	0	0	416	
2	0	0	0	0	399	
3	0	0	0	0	429	
4	0	0	0	0	413	
5	0	0	0	0	450	
6	0	0	0	0	436	
7	0	0	0	0	463	
8	0	0	0	0	442	
9	0	0	0	0	480	
10	0	0	0	0	463	
11	0	0	0	0	494	
12	0	0	0	0	471	
13	0	0	0	0	500	
14	0	0	0	0	484	
15	0	0	0	0	506	
0	0	0	0	0	496	
1	0	0	0	0	520	
2	0	0	0	0	491	
3	0	0	0	0	533	
4	0	0	0	0	514	
5	0	0	0	0	530	
6	0	0	0	0	512	
7	0	0	0	0	542	
8	0	0	0	0	521	
9	0	0	0	0	545	
10	0	0	0	0	526	
11	0	0	0	0	547	
12	0	0	0	0	522	
13	0	0	0	0	523	
14	0	0	0	0	495	
15	0	0	0	0	507	
0	0	0	0	0	478	
1	0	0	0	0	496	
2	0	0	0	0	476	
3	0	0	0	0	504	
4	0	0	0	0	487	
5	0	0	0	0	506	
6	0	0	0	0	477	
7	0	0	0	0	515	
8	0	0	0	0	500	
9	0	0	0	0	516	
10	0	0	0	0	499	
11	0	0	0	0	518	
12	0	0	0	0	496	
13	0	0	0	0	526	
14	0	0	0	0	499	
15	0	0	0	0	524	
0	0	0	0	0	507	
1	0	0	0	0	524	
2	0	0	0	0	498	
3	0	0	0	0	525	
4	0	0	0	0	500	
5	0	0	0	0	512	
6	0	0	0	0	499	
7	0	0	0	0	515	
8	0	0	0	0	495	
9	0	0	0	0	525	
10	0	0	0	0	500	
11	0	0	0	0	521	
12	0	0	0	0	495	
13	0	0	0	0	523	
14	0	0	0	0	499	
15	0	0	0	0	528	
0	0	0	0	0	505	
1	0	0	0	0	519	
2	0	0	0	0	509	
3	0	0	0	0	518	
4	0	0	0	0	503	
5	0	0	0	0	517	
6	0	0	0	0	497	
7	0	0	0	0	528	
8	0	0	0	0	506	
9	0	0	0	0	528	
10	0	0	0	0	499	
11	0	0	0	0	520	
12	0	0	0	0	502	
13	0	0	0	0	528	
14	0	0	0	0	504	
15	0	0	0	0	524	
0	0	0	0	0	503	
1	0	0	0	0	528	
2	0	0	0	0	510	
3	0	0	0	0	528	
4	0	0	0	0	497	
5	0	0	0	0	527	
6	0	0	0	0	505	
7	0	0	0	0	524	
8	0	0	0	0	517	
9	0	0	0	0	531	
10	0	0	0	0	508	
11	0	0	0	0	526	
12	0	0	0	0	510	
13	0	0	0	0	527	
14	0	0	0	0	511	
15	0	0	0	0	533	
0	0	0	0	0	520	
1	0	0	0	0	561	
2	0	0	0	0	526	
3	0	0	0	0	543	
4	0	0	0	0	505	
5	0	0	0	0	506	
6	0	0	0	0	475	
7	0	0	0	0	497	
8	0	0	0	0	483	
9	0	0	0	0	513	
10	0	0	0	0	472	
11	0	0	0	0	446	
12	0	0	0	0	534	
13	0	0	0	0	763	
14	0	0	0	0	863	
15	0	0	0	0	683	
0	0	0	0	0	500	
1	0	0	0	0	433	
2	0	0	0	0	412	
3	0	0	0	0	429	
4	0	0	0	0	416	
5	0	0	0	0	447	
6	0	0	0	0	436	
7	0	0	0	0	473	
8	0	0	0	0	457	
9	0	0	0	0	485	
10	0	0	0	0	465	
11	0	0	0	0	491	
12	0	0	0	0	472	
13	0	0	0	0	498	
14	0	0	0	0	487	
15	0	0	0	0	513	
0	0	0	0	0	494	
1	0	0	0	0	515	
2	0	0	0	0	504	
3	0	0	0	0	521	
4	0	0	0	0	505	
5	0	0	0	0	521	
6	0	0	0	0	506	
7	0	0	0	0	519	
8	0	0	0	0	509	
9	0	0	0	0	529	
10	0	0	0	0	505	
11	0	0	0	0	529	
12	0	0	0	0	513	
13	0	0	0	0	523	
14	0	0	0	0	499	
15	0	0	0	0	503	
0	0	0	0	0	477	
1	0	0	0	0	491	
2	0	0	0	0	471	
3	0	0	0	0	488	
4	0	0	0	0	463	
5	0	0	0	0	504	
6	0	0	0	0	481	
7	0	0	0	0	494	
8	0	0	0	0	495	
9	0	0	0	0	506	
10	0	0	0	0	483	
11	0	0	0	0	514	
12	0	0	0	0	497	
13	0	0	0	0	516	
14	0	0	0	0	492	
15	0	0	0	0	514	
0	0	0	0	0	509	
1	0	0	0	0	518	
2	0	0	0	0	493	
3	0	0	0	0	511	
4	0	0	0	0	497	
5	0	0	0	0	513	
6	0	0	0	0	492	
7	0	0	0	0	520	
8	0	0	0	0	498	
9	0	0	0	0	512	
10	0	0	0	0	497	
11	0	0	0	0	514	
12	0	0	0	0	498	
13	0	0	0	0	515	
14	0	0	0	0	504	
15	0	0	0	0	524	
0	0	0	0	0	504	
1	0	0	0	0	524	
2	0	0	0	0	502	
3	0	0	0	0	519	
4	0	0	0	0	509	
5	0	0	0	0	523	
6	0	0	0	0	508	
7	0	0	0	0	523	
8	0	0	0	0	508	
9	0	0	0	0	527	
10	0	0	0	0	510	
11	0	0	0	0	523	
12	0	0	0	0	512	
13	0	0	0	0	525	
14	0	0	0	0	508	
15	0	0	0	0	526	
0	0	0	0	0	510	
1	0	0	0	0	525	
2	0	0	0	0	504	
3	0	0	0	0	519	
4	0	0	0	0	503	
5	0	0	0	0	524	
6	0	0	0	0	505	
7	0	0	0	0	524	
8	0	0	0	0	507	
9	0	0	0	0	519	
10	0	0	0	0	501	
11	0	0	0	0	524	
12	0	0	0	0	508	
13	0	0	0	0	520	
14	0	0	0	0	509	
15	0	0	0	0	526	
0	0	0	0	0	507	
1	0	0	0	0	525	
2	0	0	0	0	507	
3	0	0	0	0	530	
4	0	0	0	0	502	
5	0	0	0	0	528	
6	0	0	0	0	520	
7	0	0	0	0	531	
8	0	0	0	0	532	
9	0	0	0	0	558	
10	0	0	0	0	515	
11	0	0	0	0	524	
12	0	0	0	0	497	
13	0	0	0	0	499	
14	0	0	0	0	478	
15	0	0	0	0	504	
0	0	0	0	0	487	
1	0	0	0	0	507	
2	0	0	0	0	436	
3	0	0	0	0	489	
4	0	0	0	0	679	
5	0	0	0	0	904	
6	0	0	0	0	739	
7	0	0	0	0	561	
8	0	0	0	0	429	
9	0	0	0	0	415	
10	0	0	0	0	412	
11	0	0	0	0	433	
12	0	0	0	0	419	
13	0	0	0	0	439	
14	0	0	0	0	436	
15	0	0	0	0	458	
0	0	0	0	0	454	
1	0	0	0	0	479	
2	0	0	0	0	466	
3	0	0	0	0	491	
4	0	0	0	0	473	
5	0	0	0	0	497	
6	0	0	0	0	479	
7	0	0	0	0	513	
8	0	0	0	0	501	
9	0	0	0	0	520	
10	0	0	0	0	501	
11	0	0	0	0	516	
12	0	0	0	0	505	
13	0	0	0	0	524	
14	0	0	0	0	507	
15	0	0	0	0	531	
0	0	0	0	0	513	
1	0	0	0	0	532	
2	0	0	0	0	510	
3	0	0	0	0	526	
4	0	0	0	0	506	
5	0	0	0	0	520	
6	0	0	0	0	499	
7	0	0	0	0	496	
8	0	0	0	0	475	
9	0	0	0	0	475	
10	0	0	0	0	470	
11	0	0	0	0	494	
12	0	0	0	0	479	
13	0	0	0	0	488	
14	0	0	0	0	482	
15	0	0	0	0	498	
0	0	0	0	0	479	
1	0	0	0	0	503	
2	0	0	0	0	495	
3	0	0	0	0	511	
4	0	0	0	0	494	
5	0	0	0	0	515	
6	0	0	0	0	506	
7	0	0	0	0	514	
8	0	0	0	0	508	
9	0	0	0	0	520	
10	0	0	0	0	499	
11	0	0	0	0	527	
12	0	0	0	0	508	
13	0	0	0	0	515	
14	0	0	0	0	502	
15	0	0	0	0	521	
0	0	0	0	0	505	
1	0	0	0	0	516	
2	0	0	0	0	499	
3	0	0	0	0	514	
4	0	0	0	0	497	
5	0	0	0	0	515	
6	0	0	0	0	507	
7	0	0	0	0	520	
8	0	0	0	0	498	
9	0	0	0	0	514	
10	0	0	0	0	503	
11	0	0	0	0	518	
12	0	0	0	0	503	
13	0	0	0	0	514	
14	0	0	0	0	503	
15	0	0	0	0	520	
0	0	0	0	0	503	
1	0	0	0	0	512	
2	0	0	0	0	502	
3	0	0	0	0	517	
4	0	0	0	0	507	
5	0	0	0	0	521	
6	0	0	0	0	504	
7	0	0	0	0	520	
8	0	0	0	0	509	
9	0	0	0	0	523	
10	0	0	0	0	508	
11	0	0	0	0	516	
12	0	0	0	0	505	
13	0	0	0	0	521	
14	0	0	0	0	510	
15	0	0	0	0	524	
0	0	0	0	0	504	
1	0	0	0	0	516	
2	0	0	0	0	504	
3	0	0	0	0	519	
4	0	0	0	0	499	
5	0	0	0	0	518	
6	0	0	0	0	502	
7	0	0	0	0	512	
8	0	0	0	0	505	
9	0	0	0	0	512	
10	0	0	0	0	500	
11	0	0	0	0	518	
12	0	0	0	0	506	
13	0	0	0	0	521	
14	0	0	0	0	500	
15	0	0	0	0	523	
0	0	0	0	0	513	
1	0	0	0	0	528	
2	0	0	0	0	535	
3	0	0	0	0	542	
4	0	0	0	0	519	
5	0	0	0	0	511	
6	0	0	0	0	488	
7	0	0	0	0	496	
8	0	0	0	0	480	
9	0	0	0	0	494	
10	0	0	0	0	488	
11	0	0	0	0	484	
12	0	0	0	0	419	
13	0	0	0	0	553	
14	0	0	0	0	760	
15	0	0	0	0	885	
0	0	0	0	0	641	
1	0	0	0	0	492	
2	0	0	0	0	400	
3	0	0	0	0	413	
4	0	0	0	0	401	
5	0	0	0	0	425	
6	0	0	0	0	420	
7	0	0	0	0	441	
8	0	0	0	0	440	
9	0	0	0	0	470	
10	0	0	0	0	459	
11	0	0	0	0	472	
12	0	0	0	0	465	
13	0	0	0	0	480	
14	0	0	0	0	482	
15	0	0	0	0	499	
0	0	0	0	0	489	
1	0	0	0	0	510	
2	0	0	0	0	501	
3	0	0	0	0	515	
4	0	0	0	0	503	
5	0	0	0	0	515	
6	0	0	0	0	501	
7	0	0	0	0	523	
8	0	0	0	0	512	
9	0	0	0	0	512	
10	0	0	0	0	509	
11	0	0	0	0	523	
12	0	0	0	0	508	
13	0	0	0	0	518	
14	0	0	0	0	505	
15	0	0	0	0	517	
0	0	0	0	0	496	
1	0	0	0	0	494	
2	0	0	0	0	474	
3	0	0	0	0	486	
4	0	0	0	0	473	
5	0	0	0	0	488	
6	0	0	0	0	479	
7	0	0	0	0	491	
8	0	0	0	0	485	
9	0	0	0	0	492	
10	0	0	0	0	487	
11	0	0	0	0	498	
12	0	0	0	0	486	
13	0	0	0	0	503	
14	0	0	0	0	489	
15	0	0	0	0	505	
0	0	0	0	0	476	
1	0	0	0	0	502	
2	0	0	0	0	488	
3	0	0	0	0	496	
4	0	0	0	0	496	
5	0	0	0	0	501	
6	0	0	0	0	478	
7	0	0	0	0	502	
8	0	0	0	0	490	
9	0	0	0	0	494	
10	0	0	0	0	484	
11	0	0	0	0	494	
12	0	0	0	0	487	
13	0	0	0	0	503	
14	0	0	0	0	494	
15	0	0	0	0	507	
0	0	0	0	0	497	
1	0	0	0	0	506	
2	0	0	0	0	491	
3	0	0	0	0	512	
4	0	0	0	0	502	
5	0	0	0	0	516	
6	0	0	0	0	502	
7	0	0	0	0	527	
8	0	0	0	0	507	
9	0	0	0	0	518	
10	0	0	0	0	508	
11	0	0	0	0	524	
12	0	0	0	0	510	
13	0	0	0	0	527	
14	0	0	0	0	508	
15	0	0	0	0	532	
0	0	0	0	0	521	
1	0	0	0	0	524	
2	0	0	0	0	518	
3	0	0	0	0	525	
4	0	0	0	0	510	
5	0	0	0	0	527	
6	0	0	0	0	514	
7	0	0	0	0	531	
8	0	0	0	0	510	
9	0	0	0	0	520	
10	0	0	0	0	521	
11	0	0	0	0	532	
12	0	0	0	0	511	
13	0	0	0	0	524	
14	0	0	0	0	519	
15	0	0	0	0	517	
0	0	0	0	0	520	
1	0	0	0	0	523	
2	0	0	0	0	504	
3	0	0	0	0	519	
4	0	0	0	0	514	
5	0	0	0	0	519	
6	0	0	0	0	509	
7	0	0	0	0	532	
8	0	0	0	0	510	
9	0	0	0	0	543	
10	0	0	0	0	548	
11	0	0	0	0	533	
12	0	0	0	0	523	
13	0	0	0	0	510	
14	0	0	0	0	487	
15	0	0	0	0	503	
0	0	0	0	0	492	
1	0	0	0	0	501	
2	0	0	0	0	490	
3	0	0	0	0	480	
4	0	0	0	0	428	
5	0	0	0	0	565	
6	0	0	0	0	765	
7	0	0	0	0	869	
8	0	0	0	0	638	
9	0	0	0	0	493	
10	0	0	0	0	415	
11	0	0	0	0	415	
12	0	0	0	0	412	
13	0	0	0	0	435	
14	0	0	0	0	432	
15	0	0	0	0	449	
0	0	0	0	0	455	
1	0	0	0	0	471	
2	0	0	0	0	470	
3	0	0	0	0	483	
4	0	0	0	0	471	
5	0	0	0	0	495	
6	0	0	0	0	489	
7	0	0	0	0	502	
8	0	0	0	0	501	
9	0	0	0	0	511	
10	0	0	0	0	509	
11	0	0	0	0	518	
12	0	0	0	0	512	
13	0	0	0	0	525	
14	0	0	0	0	512	
15	0	0	0	0	526	
0	0	0	0	0	518	
1	0	0	0	0	526	
2	0	0	0	0	530	
3	0	0	0	0	536	
4	0	0	0	0	527	
5	0	0	0	0	533	
6	0	0	0	0	526	
7	0	0	0	0	515	
8	0	0	0	0	506	
9	0	0	0	0	493	
10	0	0	0	0	477	
11	0	0	0	0	486	
12	0	0	0	0	478	
13	0	0	0	0	493	
14	0	0	0	0	485	
15	0	0	0	0	495	
0	0	0	0	0	489	
1	0	0	0	0	499	
2	0	0	0	0	498	
3	0	0	0	0	500	
4	0	0	0	0	487	
5	0	0	0	0	505	
6	0	0	0	0	506	
7	0	0	0	0	514	
8	0	0	0	0	506	
9	0	0	0	0	509	
10	0	0	0	0	503	
11	0	0	0	0	521	
12	0	0	0	0	509	
13	0	0	0	0	516	
14	0	0	0	0	501	
15	0	0	0	0	515	
0	0	0	0	0	508	
1	0	0	0	0	512	
2	0	0	0	0	497	
3	0	0	0	0	496	
4	0	0	0	0	506	
5	0	0	0	0	503	
6	0	0	0	0	489	
7	0	0	0	0	508	
8	0	0	0	0	503	
9	0	0	0	0	507	
10	0	0	0	0	492	
11	0	0	0	0	499	
12	0	0	0	0	490	
13	0	0	0	0	503	
14	0	0	0	0	491	
15	0	0	0	0	499	
0	0	0	0	0	480	
1	0	0	0	0	496	
2	0	0	0	0	490	
3	0	0	0	0	491	
4	0	0	0	0	489	
5	0	0	0	0	495	
6	0	0	0	0	488	
7	0	0	0	0	491	
8	0	0	0	0	493	
9	0	0	0	0	484	
10	0	0	0	0	493	
11	0	0	0	0	498	
12	0	0	0	0	490	
13	0	0	0	0	491	
14	0	0	0	0	494	
15	0	0	0	0	490	
0	0	0	0	0	481	
1	0	0	0	0	497	
2	0	0	0	0	495	
3	0	0	0	0	505	
4	0	0	0	0	493	
5	0	0	0	0	493	
6	0	0	0	0	497	
7	0	0	0	0	509	
8	0	0	0	0	494	
9	0	0	0	0	522	
10	0	0	0	0	522	
11	0	0	0	0	519	
12	0	0	0	0	499	
13	0	0	0	0	489	
14	0	0	0	0	473	
15	0	0	0	0	484	
0	0	0	0	0	487	
1	0	0	0	0	491	
2	0	0	0	0	486	
3	0	0	0	0	446	
4	0	0	0	0	466	
5	0	0	0	0	664	
6	0	0	0	0	832	
7	0	0	0	0	748	
8	0	0	0	0	582	
9	0	0	0	0	455	
10	0	0	0	0	411	
11	0	0	0	0	419	
12	0	0	0	0	422	
13	0	0	0	0	428	
14	0	0	0	0	443	
15	0	0	0	0	453	
0	0	0	0	0	456	
1	0	0	0	0	466	
2	0	0	0	0	468	
3	0	0	0	0	478	
4	0	0	0	0	483	
5	0	0	0	0	493	
6	0	0	0	0	490	
7	0	0	0	0	505	
8	0	0	0	0	509	
9	0	0	0	0	526	
10	0	0	0	0	527	
11	0	0	0	0	524	
12	0	0	0	0	535	
13	0	0	0	0	538	
14	0	0	0	0	540	
15	0	0	0	0	540	
0	0	0	0	0	542	
1	0	0	0	0	551	
2	0	0	0	0	545	
3	0	0	0	0	558	
4	0	0	0	0	550	
5	0	0	0	0	551	
6	0	0	0	0	549	
7	0	0	0	0	524	
8	0	0	0	0	505	
9	0	0	0	0	499	
10	0	0	0	0	497	
11	0	0	0	0	496	
12	0	0	0	0	499	
13	0	0	0	0	500	
14	0	0	0	0	502	
15	0	0	0	0	506	
0	0	0	0	0	507	
1	0	0	0	0	508	
2	0	0	0	0	511	
3	0	0	0	0	517	
4	0	0	0	0	520	
5	0	0	0	0	525	
6	0	0	0	0	522	
7	0	0	0	0	524	
8	0	0	0	0	523	
9	0	0	0	0	527	
10	0	0	0	0	533	
11	0	0	0	0	527	
12	0	0	0	0	518	
13	0	0	0	0	519	
14	0	0	0	0	526	
15	0	0	0	0	523	
0	0	0	0	0	519	
1	0	0	0	0	523	
2	0	0	0	0	518	
3	0	0	0	0	521	
4	0	0	0	0	508	
5	0	0	0	0	513	
6	0	0	0	0	517	
7	0	0	0	0	520	
8	0	0	0	0	515	
9	0	0	0	0	515	
10	0	0	0	0	513	
11	0	0	0	0	516	
12	0	0	0	0	510	
13	0	0	0	0	505	
14	0	0	0	0	512	
15	0	0	0	0	515	
0	0	0	0	0	511	
1	0	0	0	0	504	
2	0	0	0	0	511	
3	0	0	0	0	514	
4	0	0	0	0	504	
5	0	0	0	0	511	
6	0	0	0	0	512	
7	0	0	0	0	519	
8	0	0	0	0	522	
9	0	0	0	0	515	
10	0	0	0	0	535	
11	0	0	0	0	547	
12	0	0	0	0	534	
13	0	0	0	0	521	
14	0	0	0	0	508	
15	0	0	0	0	496	
0	0	0	0	0	500	
1	0	0	0	0	496	
2	0	0	0	0	495	
3	0	0	0	0	503	
4	0	0	0	0	478	
5	0	0	0	0	435	
6	0	0	0	0	604	
7	0	0	0	0	806	
8	0	0	0	0	855	
9	0	0	0	0	633	
10	0	0	0	0	487	
11	0	0	0	0	419	
12	0	0	0	0	415	
13	0	0	0	0	423	
14	0	0	0	0	430	
15	0	0	0	0	435	
0	0	0	0	0	452	
1	0	0	0	0	458	
2	0	0	0	0	467	
3	0	0	0	0	479	
4	0	0	0	0	489	
5	0	0	0	0	487	
6	0	0	0	0	501	
7	0	0	0	0	499	
8	0	0	0	0	505	
9	0	0	0	0	505	
10	0	0	0	0	511	
11	0	0	0	0	509	
12	0	0	0	0	521	
13	0	0	0	0	515	
14	0	0	0	0	525	
15	0	0	0	0	520	
0	0	0	0	0	531	
1	0	0	0	0	530	
2	0	0	0	0	532	
3	0	0	0	0	531	
4	0	0	0	0	531	
5	0	0	0	0	528	
6	0	0	0	0	531	
7	0	0	0	0	510	
8	0	0	0	0	504	
9	0	0	0	0	483	
10	0	0	0	0	482	
11	0	0	0	0	480	
12	0	0	0	0	471	
13	0	0	0	0	469	
14	0	0	0	0	478	
15	0	0	0	0	477	
0	0	0	0	0	484	
1	0	0	0	0	477	
2	0	0	0	0	489	
3	0	0	0	0	487	
4	0	0	0	0	495	
5	0	0	0	0	487	
6	0	0	0	0	504	
7	0	0	0	0	495	
8	0	0	0	0	499	
9	0	0	0	0	496	
10	0	0	0	0	501	
11	0	0	0	0	498	
12	0	0	0	0	515	
13	0	0	0	0	508	
14	0	0	0	0	507	
15	0	0	0	0	508	
0	0	0	0	0	513	
1	0	0	0	0	502	
2	0	0	0	0	502	
3	0	0	0	0	504	
4	0	0	0	0	508	
5	0	0	0	0	505	
6	0	0	0	0	510	
7	0	0	0	0	496	
8	0	0	0	0	513	
9	0	0	0	0	506	
10	0	0	0	0	509	
11	0	0	0	0	505	
12	0	0	0	0	513	
13	0	0	0	0	502	
14	0	0	0	0	509	
15	0	0	0	0	513	
0	0	0	0	0	519	
1	0	0	0	0	508	
2	0	0	0	0	516	
3	0	0	0	0	512	
4	0	0	0	0	516	
5	0	0	0	0	511	
6	0	0	0	0	519	
7	0	0	0	0	506	
8	0	0	0	0	515	
9	0	0	0	0	509	
10	0	0	0	0	521	
11	0	0	0	0	511	
12	0	0	0	0	515	
13	0	0	0	0	511	
14	0	0	0	0	513	
15	0	0	0	0	512	
0	0	0	0	0	519	
1	0	0	0	0	510	
2	0	0	0	0	512	
3	0	0	0	0	504	
4	0	0	0	0	517	
5	0	0	0	0	512	
6	0	0	0	0	519	
7	0	0	0	0	510	
8	0	0	0	0	514	
9	0	0	0	0	507	
10	0	0	0	0	515	
11	0	0	0	0	518	
12	0	0	0	0	521	
13	0	0	0	0	527	
14	0	0	0	0	551	
15	0	0	0	0	536	
0	0	0	0	0	534	
1	0	0	0	0	506	
2	0	0	0	0	495	
3	0	0	0	0	489	
4	0	0	0	0	497	
5	0	0	0	0	485	
6	0	0	0	0	491	
7	0	0	0	0	489	
8	0	0	0	0	446	
9	0	0	0	0	472	
10	0	0	0	0	698	
11	0	0	0	0	908	
12	0	0	0	0	743	
13	0	0	0	0	535	
14	0	0	0	0	438	
15	0	0	0	0	407	
0	0	0	0	0	417	
1	0	0	0	0	415	
2	0	0	0	0	431	
3	0	0	0	0	436	
4	0	0	0	0	451	
5	0	0	0	0	451	
6	0	0	0	0	471	
7	0	0	0	0	463	
8	0	0	0	0	480	
9	0	0	0	0	478	
10	0	0	0	0	494	
11	0	0	0	0	479	
12	0	0	0	0	503	
13	0	0	0	0	504	
14	0	0	0	0	513	
15	0	0	0	0	508	
0	0	0	0	0	516	
1	0	0	0	0	509	
2	0	0	0	0	519	
3	0	0	0	0	510	
4	0	0	0	0	523	
5	0	0	0	0	527	
6	0	0	0	0	521	
7	0	0	0	0	517	
8	0	0	0	0	530	
9	0	0	0	0	521	
10	0	0	0	0	528	
11	0	0	0	0	510	
12	0	0	0	0	504	
13	0	0	0	0	486	
14	0	0	0	0	481	
15	0	0	0	0	471	
0	0	0	0	0	480	
1	0	0	0	0	480	
2	0	0	0	0	488	
3	0	0	0	0	478	
4	0	0	0	0	492	
5	0	0	0	0	488	
6	0	0	0	0	497	
7	0	0	0	0	491	
8	0	0	0	0	506	
9	0	0	0	0	490	
10	0	0	0	0	510	
11	0	0	0	0	495	
12	0	0	0	0	515	
13	0	0	0	0	503	
14	0	0	0	0	514	
15	0	0	0	0	512	
0	0	0	0	0	516	
1	0	0	0	0	510	
2	0	0	0	0	520	
3	0	0	0	0	513	
4	0	0	0	0	521	
5	0	0	0	0	508	
6	0	0	0	0	520	
7	0	0	0	0	505	
8	0	0	0	0	517	
9	0	0	0	0	508	
10	0	0	0	0	511	
11	0	0	0	0	499	
12	0	0	0	0	515	
13	0	0	0	0	509	
14	0	0	0	0	520	
15	0	0	0	0	511	
0	0	0	0	0	515	
1	0	0	0	0	499	
2	0	0	0	0	521	
3	0	0	0	0	505	
4	0	0	0	0	518	
5	0	0	0	0	508	
6	0	0	0	0	517	
7	0	0	0	0	509	
8	0	0	0	0	523	
9	0	0	0	0	511	
10	0	0	0	0	519	
11	0	0	0	0	513	
12	0	0	0	0	522	
13	0	0	0	0	508	
14	0	0	0	0	522	
15	0	0	0	0	511	
0	0	0	0	0	519	
1	0	0	0	0	513	
2	0	0	0	0	521	
3	0	0	0	0	508	
4	0	0	0	0	524	
5	0	0	0	0	511	
6	0	0	0	0	523	
7	0	0	0	0	506	
8	0	0	0	0	524	
9	0	0	0	0	511	
10	0	0	0	0	524	
11	0	0	0	0	508	
12	0	0	0	0	524	
13	0	0	0	0	502	
14	0	0	0	0	518	
15	0	0	0	0	507	
0	0	0	0	0	515	
1	0	0	0	0	505	
2	0	0	0	0	518	
3	0	0	0	0	504	
4	0	0	0	0	521	
5	0	0	0	0	503	
6	0	0	0	0	517	
7	0	0	0	0	501	
8	0	0	0	0	519	
9	0	0	0	0	497	
10	0	0	0	0	516	
11	0	0	0	0	508	
12	0	0	0	0	513	
13	0	0	0	0	505	
14	0	0	0	0	528	
15	0	0	0	0	510	
0	0	0	0	0	531	
1	0	0	0	0	536	
2	0	0	0	0	535	
3	0	0	0	0	507	
4	0	0	0	0	503	
5	0	0	0	0	479	
6	0	0	0	0	492	
7	0	0	0	0	478	
8	0	0	0	0	493	
9	0	0	0	0	486	
10	0	0	0	0	495	
11	0	0	0	0	416	
12	0	0	0	0	508	
13	0	0	0	0	720	
14	0	0	0	0	924	
15	0	0	0	0	697	
0	0	0	0	0	522	
1	0	0	0	0	414	
2	0	0	0	0	404	
3	0	0	0	0	396	
4	0	0	0	0	421	
5	0	0	0	0	417	
6	0	0	0	0	445	
7	0	0	0	0	438	
8	0	0	0	0	454	
9	0	0	0	0	455	
10	0	0	0	0	475	
11	0	0	0	0	475	
12	0	0	0	0	485	
13	0	0	0	0	483	
14	0	0	0	0	500	
15	0	0	0	0	488	
0	0	0	0	0	509	
1	0	0	0	0	492	
2	0	0	0	0	516	
3	0	0	0	0	499	
4	0	0	0	0	521	
5	0	0	0	0	512	
6	0	0	0	0	520	
7	0	0	0	0	510	
8	0	0	0	0	527	
9	0	0	0	0	509	
10	0	0	0	0	534	
11	0	0	0	0	518	
12	0	0	0	0	530	
13	0	0	0	0	519	
14	0	0	0	0	527	
15	0	0	0	0	491	
0	0	0	0	0	497	
1	0	0	0	0	472	
2	0	0	0	0	490	
3	0	0	0	0	466	
4	0	0	0	0	487	
5	0	0	0	0	472	
6	0	0	0	0	495	
7	0	0	0	0	486	
8	0	0	0	0	504	
9	0	0	0	0	483	
10	0	0	0	0	504	
11	0	0	0	0	486	
12	0	0	0	0	502	
13	0	0	0	0	489	
14	0	0	0	0	513	
15	0	0	0	0	497	
0	0	0	0	0	513	
1	0	0	0	0	499	
2	0	0	0	0	518	
3	0	0	0	0	511	
4	0	0	0	0	517	
5	0	0	0	0	504	
6	0	0	0	0	516	
7	0	0	0	0	504	
8	0	0	0	0	520	
9	0	0	0	0	500	
10	0	0	0	0	510	
11	0	0	0	0	496	
12	0	0	0	0	508	
13	0	0	0	0	495	
14	0	0	0	0	515	
15	0	0	0	0	492	
0	0	0	0	0	513	
1	0	0	0	0	492	
2	0	0	0	0	515	
3	0	0	0	0	500	
4	0	0	0	0	518	
5	0	0	0	0	503	
6	0	0	0	0	521	
7	0	0	0	0	503	
8	0	0	0	0	523	
9	0	0	0	0	507	
10	0	0	0	0	518	
11	0	0	0	0	511	
12	0	0	0	0	526	
13	0	0	0	0	507	
14	0	0	0	0	521	
15	0	0	0	0	507	
0	0	0	0	0	526	
1	0	0	0	0	509	
2	0	0	0	0	522	
3	0	0	0	0	505	
4	0	0	0	0	525	
5	0	0	0	0	507	
6	0	0	0	0	515	
7	0	0	0	0	510	
8	0	0	0	0	520	
9	0	0	0	0	509	
10	0	0	0	0	525	
11	0	0	0	0	503	
12	0	0	0	0	532	
13	0	0	0	0	502	
14	0	0	0	0	515	
15	0	0	0	0	505	
0	0	0	0	0	518	
1	0	0	0	0	496	
2	0	0	0	0	516	
3	0	0	0	0	496	
4	0	0	0	0	509	
5	0	0	0	0	487	
6	0	0	0	0	515	
7	0	0	0	0	495	
8	0	0	0	0	514	
9	0	0	0	0	479	
10	0	0	0	0	508	
11	0	0	0	0	489	
12	0	0	0	0	506	
13	0	0	0	0	486	
14	0	0	0	0	505	
15	0	0	0	0	493	
0	0	0	0	0	507	
1	0	0	0	0	510	
2	0	0	0	0	536	
3	0	0	0	0	491	
4	0	0	0	0	494	
5	0	0	0	0	465	
6	0	0	0	0	490	
7	0	0	0	0	459	
8	0	0	0	0	473	
9	0	0	0	0	461	
10	0	0	0	0	493	
11	0	0	0	0	439	
12	0	0	0	0	442	
13	0	0	0	0	573	
14	0	0	0	0	796	
15	0	0	0	0	784	
0	0	0	0	0	608	
1	0	0	0	0	447	
2	0	0	0	0	402	
3	0	0	0	0	375	
4	0	0	0	0	399	
5	0	0	0	0	373	
6	0	0	0	0	414	
7	0	0	0	0	416	
8	0	0	0	0	434	
9	0	0	0	0	403	
10	0	0	0	0	442	
11	0	0	0	0	431	
12	0	0	0	0	460	
13	0	0	0	0	432	
14	0	0	0	0	459	
15	0	0	0	0	442	
0	0	0	0	0	455	
1	0	0	0	0	432	
2	0	0	0	0	470	
3	0	0	0	0	454	
4	0	0	0	0	472	
5	0	0	0	0	457	
6	0	0	0	0	487	
7	0	0	0	0	478	
8	0	0	0	0	500	
9	0	0	0	0	483	
10	0	0	0	0	511	
11	0	0	0	0	490	
12	0	0	0	0	523	
13	0	0	0	0	502	
14	0	0	0	0	519	
15	0	0	0	0	493	
0	0	0	0	0	503	
1	0	0	0	0	483	
2	0	0	0	0	498	
3	0	0	0	0	480	
4	0	0	0	0	512	
5	0	0	0	0	487	
6	0	0	0	0	521	
7	0	0	0	0	500	
8	0	0	0	0	531	
9	0	0	0	0	502	
10	0	0	0	0	547	
11	0	0	0	0	524	
12	0	0	0	0	549	
13	0	0	0	0	530	
14	0	0	0	0	561	
15	0	0	0	0	537	
0	0	0	0	0	570	
1	0	0	0	0	545	
2	0	0	0	0	571	
3	0	0	0	0	559	
4	0	0	0	0	574	
5	0	0	0	0	556	
6	0	0	0	0	576	
7	0	0	0	0	556	
8	0	0	0	0	575	
9	0	0	0	0	554	
10	0	0	0	0	575	
11	0	0	0	0	553	
12	0	0	0	0	570	
13	0	0	0	0	536	
14	0	0	0	0	566	
15	0	0	0	0	540	
0	0	0	0	0	564	
1	0	0	0	0	537	
2	0	0	0	0	561	
3	0	0	0	0	529	
4	0	0	0	0	562	
5	0	0	0	0	534	
6	0	0	0	0	564	
7	0	0	0	0	528	
8	0	0	0	0	552	
9	0	0	0	0	531	
10	0	0	0	0	545	
11	0	0	0	0	524	
12	0	0	0	0	542	
13	0	0	0	0	518	
14	0	0	0	0	540	
15	0	0	0	0	521	
0	0	0	0	0	535	
1	0	0	0	0	506	
2	0	0	0	0	537	
3	0	0	0	0	507	
4	0	0	0	0	533	
5	0	0	0	0	503	
6	0	0	0	0	530	
7	0	0	0	0	506	
8	0	0	0	0	523	
9	0	0	0	0	503	
10	0	0	0	0	532	
11	0	0	0	0	503	
12	0	0	0	0	553	
13	0	0	0	0	540	
14	0	0	0	0	536	
15	0	0	0	0	501	
0	0	0	0	0	511	
1	0	0	0	0	476	
2	0	0	0	0	498	
3	0	0	0	0	466	
4	0	0	0	0	496	
5	0	0	0	0	477	
6	0	0	0	0	485	
7	0	0	0	0	407	
8	0	0	0	0	558	
9	0	0	0	0	766	
10	0	0	0	0	905	
11	0	0	0	0	651	
12	0	0	0	0	512	
13	0	0	0	0	404	
14	0	0	0	0	418	
15	0	0	0	0	393	
0	0	0	0	0	425	
1	0	0	0	0	407	
2	0	0	0	0	443	
3	0	0	0	0	440	
4	0	0	0	0	464	
5	0	0	0	0	448	
6	0	0	0	0	484	
7	0	0	0	0	466	
8	0	0	0	0	492	
9	0	0	0	0	482	
10	0	0	0	0	499	
11	0	0	0	0	482	
12	0	0	0	0	519	
13	0	0	0	0	484	
14	0	0	0	0	524	
15	0	0	0	0	500	
0	0	0	0	0	527	
1	0	0	0	0	510	
2	0	0	0	0	536	
3	0	0	0	0	505	
4	0	0	0	0	540	
5	0	0	0	0	513	
6	0	0	0	0	538	
7	0	0	0	0	515	
8	0	0	0	0	534	
9	0	0	0	0	508	
10	0	0	0	0	521	
11	0	0	0	0	481	
12	0	0	0	0	493	
13	0	0	0	0	456	
14	0	0	0	0	481	
15	0	0	0	0	463	
0	0	0	0	0	487	
1	0	0	0	0	463	
2	0	0	0	0	494	
3	0	0	0	0	473	
4	0	0	0	0	502	
5	0	0	0	0	475	
6	0	0	0	0	504	
7	0	0	0	0	479	
8	0	0	0	0	497	
9	0	0	0	0	478	
10	0	0	0	0	509	
11	0	0	0	0	483	
12	0	0	0	0	502	
13	0	0	0	0	483	
14	0	0	0	0	515	
15	0	0	0	0	488	
0	0	0	0	0	513	
1	0	0	0	0	478	
2	0	0	0	0	510	
3	0	0	0	0	490	
4	0	0	0	0	495	
5	0	0	0	0	479	
6	0	0	0	0	505	
7	0	0	0	0	478	
8	0	0	0	0	507	
9	0	0	0	0	485	
10	0	0	0	0	510	
11	0	0	0	0	484	
12	0	0	0	0	514	
13	0	0	0	0	486	
14	0	0	0	0	512	
15	0	0	0	0	499	
0	0	0	0	0	529	
1	0	0	0	0	494	
2	0	0	0	0	524	
3	0	0	0	0	496	
4	0	0	0	0	530	
5	0	0	0	0	502	
6	0	0	0	0	520	
7	0	0	0	0	495	
8	0	0	0	0	524	
9	0	0	0	0	498	
10	0	0	0	0	528	
11	0	0	0	0	494	
12	0	0	0	0	524	
13	0	0	0	0	499	
14	0	0	0	0	524	
15	0	0	0	0	500	
0	0	0	0	0	520	
1	0	0	0	0	497	
2	0	0	0	0	519	
3	0	0	0	0	499	
4	0	0	0	0	526	
5	0	0	0	0	499	
6	0	0	0	0	531	
7	0	0	0	0	504	
8	0	0	0	0	526	
9	0	0	0	0	509	
10	0	0	0	0	526	
11	0	0	0	0	503	
12	0	0	0	0	529	
13	0	0	0	0	496	
14	0	0	0	0	524	
15	0	0	0	0	497	
0	0	0	0	0	533	
1	0	0	0	0	496	
2	0	0	0	0	526	
3	0	0	0	0	499	
4	0	0	0	0	527	
5	0	0	0	0	499	
6	0	0	0	0	528	
7	0	0	0	0	504	
8	0	0	0	0	525	
9	0	0	0	0	508	
10	0	0	0	0	540	
11	0	0	0	0	520	
12	0	0	0	0	566	
13	0	0	0	0	534	
14	0	0	0	0	544	
15	0	0	0	0	509	
0	0	0	0	0	527	
1	0	0	0	0	491	
2	0	0	0	0	512	
3	0	0	0	0	499	
4	0	0	0	0	525	
5	0	0	0	0	493	
6	0	0	0	0	490	
7	0	0	0	0	455	
8	0	0	0	0	665	
9	0	0	0	0	871	
10	0	0	0	0	843	
11	0	0	0	0	582	
12	0	0	0	0	478	
13	0	0	0	0	403	
14	0	0	0	0	431	
15	0	0	0	0	414	
0	0	0	0	0	445	
1	0	0	0	0	424	
2	0	0	0	0	461	
3	0	0	0	0	438	
4	0	0	0	0	471	
5	0	0	0	0	457	
6	0	0	0	0	492	
7	0	0	0	0	475	
8	0	0	0	0	504	
9	0	0	0	0	481	
10	0	0	0	0	510	
11	0	0	0	0	485	
12	0	0	0	0	519	
13	0	0	0	0	492	
14	0	0	0	0	520	
15	0	0	0	0	500	
0	0	0	0	0	525	
1	0	0	0	0	499	
2	0	0	0	0	534	
3	0	0	0	0	505	
4	0	0	0	0	532	
5	0	0	0	0	510	
6	0	0	0	0	535	
7	0	0	0	0	515	
8	0	0	0	0	539	
9	0	0	0	0	508	
10	0	0	0	0	528	
11	0	0	0	0	486	
12	0	0	0	0	493	
13	0	0	0	0	464	
14	0	0	0	0	487	
15	0	0	0	0	463	
0	0	0	0	0	495	
1	0	0	0	0	459	
2	0	0	0	0	499	
3	0	0	0	0	475	
4	0	0	0	0	505	
5	0	0	0	0	481	
6	0	0	0	0	505	
7	0	0	0	0	486	
8	0	0	0	0	512	
9	0	0	0	0	491	
10	0	0	0	0	513	
11	0	0	0	0	496	
12	0	0	0	0	525	
13	0	0	0	0	496	
14	0	0	0	0	525	
15	0	0	0	0	500	
0	0	0	0	0	519	
1	0	0	0	0	495	
2	0	0	0	0	522	
3	0	0	0	0	501	
4	0	0	0	0	530	
5	0	0	0	0	489	
6	0	0	0	0	517	
7	0	0	0	0	487	
8	0	0	0	0	515	
9	0	0	0	0	489	
10	0	0	0	0	519	
11	0	0	0	0	489	
12	0	0	0	0	520	
13	0	0	0	0	493	
14	0	0	0	0	527	
15	0	0	0	0	492	
0	0	0	0	0	522	
1	0	0	0	0	499	
2	0	0	0	0	517	
3	0	0	0	0	483	
4	0	0	0	0	519	
5	0	0	0	0	493	
6	0	0	0	0	523	
7	0	0	0	0	499	
8	0	0	0	0	516	
9	0	0	0	0	498	
10	0	0	0	0	529	
11	0	0	0	0	499	
12	0	0	0	0	520	
13	0	0	0	0	499	
14	0	0	0	0	524	
15	0	0	0	0	504	
0	0	0	0	0	534	
1	0	0	0	0	492	
2	0	0	0	0	528	
3	0	0	0	0	500	
4	0	0	0	0	526	
5	0	0	0	0	496	
6	0	0	0	0	523	
7	0	0	0	0	498	
8	0	0	0	0	528	
9	0	0	0	0	495	
10	0	0	0	0	529	
11	0	0	0	0	497	
12	0	0	0	0	526	
13	0	0	0	0	494	
14	0	0	0	0	518	
15	0	0	0	0	489	
0	0	0	0	0	524	
1	0	0	0	0	492	
2	0	0	0	0	522	
3	0	0	0	0	495	
4	0	0	0	0	522	
5	0	0	0	0	497	
6	0	0	0	0	512	
7	0	0	0	0	492	
8	0	0	0	0	515	
9	0	0	0	0	491	
10	0	0	0	0	512	
11	0	0	0	0	488	
12	0	0	0	0	514	
13	0	0	0	0	483	
14	0	0	0	0	517	
15	0	0	0	0	492	
0	0	0	0	0	512	
1	0	0	0	0	491	
2	0	0	0	0	520	
3	0	0	0	0	500	
4	0	0	0	0	552	
5	0	0	0	0	510	
6	0	0	0	0	526	
7	0	0	0	0	479	
8	0	0	0	0	503	
9	0	0	0	0	468	
10	0	0	0	0	496	
11	0	0	0	0	476	
12	0	0	0	0	499	
13	0	0	0	0	469	
14	0	0	0	0	442	
15	0	0	0	0	481	
0	0	0	0	0	742	
1	0	0	0	0	896	
2	0	0	0	0	722	
3	0	0	0	0	506	
4	0	0	0	0	433	
5	0	0	0	0	383	
6	0	0	0	0	420	
7	0	0	0	0	395	
8	0	0	0	0	440	
9	0	0	0	0	419	
10	0	0	0	0	459	
11	0	0	0	0	443	
12	0	0	0	0	477	
13	0	0	0	0	460	
14	0	0	0	0	495	
15	0	0	0	0	479	
0	0	0	0	0	504	
1	0	0	0	0	486	
2	0	0	0	0	515	
3	0	0	0	0	488	
4	0	0	0	0	529	
5	0	0	0	0	487	
6	0	0	0	0	529	
7	0	0	0	0	498	
8	0	0	0	0	534	
9	0	0	0	0	508	
10	0	0	0	0	539	
11	0	0	0	0	502	
12	0	0	0	0	536	
13	0	0	0	0	517	
14	0	0	0	0	543	
15	0	0	0	0	509	
0	0	0	0	0	540	
1	0	0	0	0	501	
2	0	0	0	0	521	
3	0	0	0	0	480	
4	0	0	0	0	501	
5	0	0	0	0	457	
6	0	0	0	0	487	
7	0	0	0	0	453	
8	0	0	0	0	495	
9	0	0	0	0	469	
10	0	0	0	0	506	
11	0	0	0	0	473	
12	0	0	0	0	507	
13	0	0	0	0	481	
14	0	0	0	0	515	
15	0	0	0	0	487	
0	0	0	0	0	519	
1	0	0	0	0	499	
2	0	0	0	0	522	
3	0	0	0	0	506	
4	0	0	0	0	529	
5	0	0	0	0	508	
6	0	0	0	0	534	
7	0	0	0	0	492	
8	0	0	0	0	529	
9	0	0	0	0	503	
10	0	0	0	0	540	
11	0	0	0	0	504	
12	0	0	0	0	530	
13	0	0	0	0	497	
14	0	0	0	0	527	
15	0	0	0	0	496	
0	0	0	0	0	513	
1	0	0	0	0	487	
2	0	0	0	0	516	
3	0	0	0	0	481	
4	0	0	0	0	507	
5	0	0	0	0	480	
6	0	0	0	0	514	
7	0	0	0	0	474	
8	0	0	0	0	504	
9	0	0	0	0	476	
10	0	0	0	0	500	
11	0	0	0	0	473	
12	0	0	0	0	508	
13	0	0	0	0	476	
14	0	0	0	0	504	
15	0	0	0	0	469	
0	0	0	0	0	502	
1	0	0	0	0	481	
2	0	0	0	0	503	
3	0	0	0	0	478	
4	0	0	0	0	504	
5	0	0	0	0	486	
6	0	0	0	0	519	
7	0	0	0	0	483	
8	0	0	0	0	515	
9	0	0	0	0	488	
10	0	0	0	0	516	
11	0	0	0	0	485	
12	0	0	0	0	518	
13	0	0	0	0	492	
14	0	0	0	0	529	
15	0	0	0	0	497	
0	0	0	0	0	519	
1	0	0	0	0	490	
2	0	0	0	0	519	
3	0	0	0	0	489	
4	0	0	0	0	517	
5	0	0	0	0	490	
6	0	0	0	0	513	
7	0	0	0	0	480	
8	0	0	0	0	519	
9	0	0	0	0	499	
10	0	0	0	0	518	
11	0	0	0	0	482	
12	0	0	0	0	512	
13	0	0	0	0	482	
14	0	0	0	0	510	
15	0	0	0	0	479	
0	0	0	0	0	512	
1	0	0	0	0	481	
2	0	0	0	0	516	
3	0	0	0	0	491	
4	0	0	0	0	528	
5	0	0	0	0	505	
6	0	0	0	0	541	
7	0	0	0	0	493	
8	0	0	0	0	524	
9	0	0	0	0	475	
10	0	0	0	0	497	
11	0	0	0	0	476	
12	0	0	0	0	504	
13	0	0	0	0	478	
14	0	0	0	0	503	
15	0	0	0	0	451	
0	0	0	0	0	455	
1	0	0	0	0	563	
2	0	0	0	0	785	
3	0	0	0	0	828	
4	0	0	0	0	651	
5	0	0	0	0	478	
6	0	0	0	0	429	
7	0	0	0	0	397	
8	0	0	0	0	412	
9	0	0	0	0	422	
10	0	0	0	0	452	
11	0	0	0	0	428	
12	0	0	0	0	473	
13	0	0	0	0	453	
14	0	0	0	0	487	
15	0	0	0	0	464	
0	0	0	0	0	504	
1	0	0	0	0	476	
2	0	0	0	0	507	
3	0	0	0	0	495	
4	0	0	0	0	528	
5	0	0	0	0	499	
6	0	0	0	0	536	
7	0	0	0	0	501	
8	0	0	0	0	545	
9	0	0	0	0	517	
10	0	0	0	0	550	
11	0	0	0	0	515	
12	0	0	0	0	550	
13	0	0	0	0	528	
14	0	0	0	0	555	
15	0	0	0	0	524	
0	0	0	0	0	556	
1	0	0	0	0	525	
2	0	0	0	0	556	
3	0	0	0	0	506	
4	0	0	0	0	526	
5	0	0	0	0	476	
6	0	0	0	0	487	
7	0	0	0	0	463	
8	0	0	0	0	488	
9	0	0	0	0	471	
10	0	0	0	0	500	
11	0	0	0	0	476	
12	0	0	0	0	508	
13	0	0	0	0	484	
14	0	0	0	0	515	
15	0	0	0	0	481	
0	0	0	0	0	510	
1	0	0	0	0	481	
2	0	0	0	0	529	
3	0	0	0	0	491	
4	0	0	0	0	519	
5	0	0	0	0	501	
6	0	0	0	0	527	
7	0	0	0	0	505	
8	0	0	0	0	536	
9	0	0	0	0	508	
10	0	0	0	0	539	
11	0	0	0	0	517	
12	0	0	0	0	532	
13	0	0	0	0	500	
14	0	0	0	0	536	
15	0	0	0	0	504	
0	0	0	0	0	525	
1	0	0	0	0	498	
2	0	0	0	0	527	
3	0	0	0	0	494	
4	0	0	0	0	527	
5	0	0	0	0	498	
6	0	0	0	0	515	
7	0	0	0	0	492	
8	0	0	0	0	524	
9	0	0	0	0	492	
10	0	0	0	0	524	
11	0	0	0	0	491	
12	0	0	0	0	513	
13	0	0	0	0	487	
14	0	0	0	0	515	
15	0	0	0	0	491	
0	0	0	0	0	515	
1	0	0	0	0	495	
2	0	0	0	0	517	
3	0	0	0	0	488	
4	0	0	0	0	519	
5	0	0	0	0	488	
6	0	0	0	0	524	
7	0	0	0	0	494	
8	0	0	0	0	526	
9	0	0	0	0	497	
10	0	0	0	0	524	
11	0	0	0	0	499	
12	0	0	0	0	529	
13	0	0	0	0	494	
14	0	0	0	0	530	
15	0	0	0	0	503	
0	0	0	0	0	531	
1	0	0	0	0	504	
2	0	0	0	0	535	
3	0	0	0	0	514	
4	0	0	0	0	543	
5	0	0	0	0	520	
6	0	0	0	0	560	
7	0	0	0	0	543	
8	0	0	0	0	561	
9	0	0	0	0	515	
10	0	0	0	0	530	
11	0	0	0	0	491	
12	0	0	0	0	515	
13	0	0	0	0	482	
14	0	0	0	0	517	
15	0	0	0	0	488	
0	0	0	0	0	498	
1	0	0	0	0	426	
2	0	0	0	0	566	
3	0	0	0	0	754	
4	0	0	0	0	899	
5	0	0	0	0	657	
6	0	0	0	0	526	
7	0	0	0	0	403	
8	0	0	0	0	423	
9	0	0	0	0	404	
10	0	0	0	0	435	
11	0	0	0	0	418	
12	0	0	0	0	455	
13	0	0	0	0	430	
14	0	0	0	0	467	
15	0	0	0	0	448	
0	0	0	0	0	484	
1	0	0	0	0	463	
2	0	0	0	0	499	
3	0	0	0	0	466	
4	0	0	0	0	503	
5	0	0	0	0	484	
6	0	0	0	0	517	
7	0	0	0	0	483	
8	0	0	0	0	529	
9	0	0	0	0	498	
10	0	0	0	0	532	
11	0	0	0	0	504	
12	0	0	0	0	521	
13	0	0	0	0	502	
14	0	0	0	0	532	
15	0	0	0	0	504	
0	0	0	0	0	543	
1	0	0	0	0	508	
2	0	0	0	0	536	
3	0	0	0	0	499	
4	0	0	0	0	512	
5	0	0	0	0	472	
6	0	0	0	0	496	
7	0	0	0	0	455	
8	0	0	0	0	477	
9	0	0	0	0	448	
10	0	0	0	0	479	
11	0	0	0	0	457	
12	0	0	0	0	489	
13	0	0	0	0	465	
14	0	0	0	0	490	
15	0	0	0	0	473	
0	0	0	0	0	508	
1	0	0	0	0	480	
2	0	0	0	0	509	
3	0	0	0	0	489	
4	0	0	0	0	521	
5	0	0	0	0	494	
6	0	0	0	0	526	
7	0	0	0	0	497	
8	0	0	0	0	528	
9	0	0	0	0	503	
10	0	0	0	0	530	
11	0	0	0	0	505	
12	0	0	0	0	536	
13	0	0	0	0	498	
14	0	0	0	0	533	
15	0	0	0	0	501	
0	0	0	0	0	528	
1	0	0	0	0	495	
2	0	0	0	0	535	
3	0	0	0	0	498	
4	0	0	0	0	525	
5	0	0	0	0	498	
6	0	0	0	0	529	
7	0	0	0	0	492	
8	0	0	0	0	524	
9	0	0	0	0	496	
10	0	0	0	0	530	
11	0	0	0	0	508	
12	0	0	0	0	533	
13	0	0	0	0	505	
14	0	0	0	0	533	
15	0	0	0	0	507	
0	0	0	0	0	540	
1	0	0	0	0	501	
2	0	0	0	0	534	
3	0	0	0	0	501	
4	0	0	0	0	535	
5	0	0	0	0	506	
6	0	0	0	0	536	
7	0	0	0	0	499	
8	0	0	0	0	543	
9	0	0	0	0	504	
10	0	0	0	0	539	
11	0	0	0	0	505	
12	0	0	0	0	538	
13	0	0	0	0	509	
14	0	0	0	0	535	
15	0	0	0	0	506	
0	0	0	0	0	531	
1	0	0	0	0	503	
2	0	0	0	0	531	
3	0	0	0	0	510	
4	0	0	0	0	533	
5	0	0	0	0	499	
6	0	0	0	0	534	
7	0	0	0	0	506	
8	0	0	0	0	539	
9	0	0	0	0	498	
10	0	0	0	0	526	
11	0	0	0	0	502	
12	0	0	0	0	536	
13	0	0	0	0	493	
14	0	0	0	0	530	
15	0	0	0	0	499	
0	0	0	0	0	533	
1	0	0	0	0	504	
2	0	0	0	0	528	
3	0	0	0	0	496	
4	0	0	0	0	531	
5	0	0	0	0	505	
6	0	0	0	0	535	
7	0	0	0	0	502	
8	0	0	0	0	527	
9	0	0	0	0	500	
10	0	0	0	0	529	
11	0	0	0	0	493	
12	0	0	0	0	525	
13	0	0	0	0	504	
14	0	0	0	0	543	
15	0	0	0	0	510	
0	0	0	0	0	547	
1	0	0	0	0	513	
2	0	0	0	0	511	
3	0	0	0	0	479	
4	0	0	0	0	501	
5	0	0	0	0	475	
6	0	0	0	0	502	
7	0	0	0	0	475	
8	0	0	0	0	515	
9	0	0	0	0	442	
10	0	0	0	0	465	
11	0	0	0	0	632	
12	0	0	0	0	901	
13	0	0	0	0	806	
14	0	0	0	0	588	
15	0	0	0	0	425	
0	0	0	0	0	428	
1	0	0	0	0	385	
2	0	0	0	0	423	
3	0	0	0	0	403	
4	0	0	0	0	438	
5	0	0	0	0	422	
6	0	0	0	0	458	
7	0	0	0	0	436	
8	0	0	0	0	465	
9	0	0	0	0	455	
10	0	0	0	0	479	
11	0	0	0	0	464	
12	0	0	0	0	497	
13	0	0	0	0	464	
14	0	0	0	0	504	
15	0	0	0	0	484	
0	0	0	0	0	514	
1	0	0	0	0	487	
2	0	0	0	0	525	
3	0	0	0	0	488	
4	0	0	0	0	530	
5	0	0	0	0	499	
6	0	0	0	0	531	
7	0	0	0	0	502	
8	0	0	0	0	528	
9	0	0	0	0	499	
10	0	0	0	0	541	
11	0	0	0	0	506	
12	0	0	0	0	528	
13	0	0	0	0	492	
14	0	0	0	0	508	
15	0	0	0	0	464	
0	0	0	0	0	490	
1	0	0	0	0	458	
2	0	0	0	0	481	
3	0	0	0	0	468	
4	0	0	0	0	500	
5	0	0	0	0	473	
6	0	0	0	0	503	
7	0	0	0	0	475	
8	0	0	0	0	508	
9	0	0	0	0	483	
10	0	0	0	0	517	
11	0	0	0	0	492	
12	0	0	0	0	516	
13	0	0	0	0	492	
14	0	0	0	0	523	
15	0	0	0	0	499	
0	0	0	0	0	529	
1	0	0	0	0	497	
2	0	0	0	0	536	
3	0	0	0	0	504	
4	0	0	0	0	530	
5	0	0	0	0	511	
6	0	0	0	0	532	
7	0	0	0	0	501	
8	0	0	0	0	532	
9	0	0	0	0	503	
10	0	0	0	0	523	
11	0	0	0	0	491	
12	0	0	0	0	529	
13	0	0	0	0	498	
14	0	0	0	0	527	
15	0	0	0	0	509	
0	0	0	0	0	530	
1	0	0	0	0	503	
2	0	0	0	0	532	
3	0	0	0	0	499	
4	0	0	0	0	533	
5	0	0	0	0	494	
6	0	0	0	0	536	
7	0	0	0	0	507	
8	0	0	0	0	535	
9	0	0	0	0	504	
10	0	0	0	0	529	
11	0	0	0	0	497	
12	0	0	0	0	530	
13	0	0	0	0	499	
14	0	0	0	0	529	
15	0	0	0	0	500	
0	0	0	0	0	530	
1	0	0	0	0	505	
2	0	0	0	0	532	
3	0	0	0	0	498	
4	0	0	0	0	532	
5	0	0	0	0	502	
6	0	0	0	0	530	
7	0	0	0	0	500	
8	0	0	0	0	528	
9	0	0	0	0	507	
10	0	0	0	0	524	
11	0	0	0	0	489	
12	0	0	0	0	520	
13	0	0	0	0	499	
14	0	0	0	0	526	
15	0	0	0	0	497	
0	0	0	0	0	516	
1	0	0	0	0	494	
2	0	0	0	0	523	
3	0	0	0	0	496	
4	0	0	0	0	521	
5	0	0	0	0	494	
6	0	0	0	0	519	
7	0	0	0	0	498	
8	0	0	0	0	525	
9	0	0	0	0	495	
10	0	0	0	0	523	
11	0	0	0	0	497	
12	0	0	0	0	528	
13	0	0	0	0	499	
14	0	0	0	0	526	
15	0	0	0	0	502	
0	0	0	0	0	533	
1	0	0	0	0	494	
2	0	0	0	0	521	
3	0	0	0	0	499	
4	0	0	0	0	529	
5	0	0	0	0	488	
6	0	0	0	0	532	
7	0	0	0	0	496	
8	0	0	0	0	523	
9	0	0	0	0	488	
10	0	0	0	0	518	
11	0	0	0	0	491	
12	0	0	0	0	508	
13	0	0	0	0	428	
14	0	0	0	0	566	
15	0	0	0	0	764	
0	0	0	0	0	920	
1	0	0	0	0	657	
2	0	0	0	0	531	
3	0	0	0	0	415	
4	0	0	0	0	419	
5	0	0	0	0	398	
6	0	0	0	0	437	
7	0	0	0	0	417	
8	0	0	0	0	453	
9	0	0	0	0	442	
10	0	0	0	0	470	
11	0	0	0	0	451	
12	0	0	0	0	483	
13	0	0	0	0	467	
14	0	0	0	0	499	
15	0	0	0	0	469	
0	0	0	0	0	511	
1	0	0	0	0	477	
2	0	0	0	0	505	
3	0	0	0	0	494	
4	0	0	0	0	514	
5	0	0	0	0	496	
6	0	0	0	0	527	
7	0	0	0	0	501	
8	0	0	0	0	530	
9	0	0	0	0	507	
10	0	0	0	0	543	
11	0	0	0	0	505	
12	0	0	0	0	535	
13	0	0	0	0	520	
14	0	0	0	0	543	
15	0	0	0	0	512	
0	0	0	0	0	538	
1	0	0	0	0	491	
2	0	0	0	0	507	
3	0	0	0	0	466	
4	0	0	0	0	494	
5	0	0	0	0	460	
6	0	0	0	0	490	
7	0	0	0	0	460	
8	0	0	0	0	499	
9	0	0	0	0	473	
10	0	0	0	0	497	
11	0	0	0	0	480	
12	0	0	0	0	506	
13	0	0	0	0	476	
14	0	0	0	0	512	
15	0	0	0	0	490	
0	0	0	0	0	519	
1	0	0	0	0	483	
2	0	0	0	0	508	
3	0	0	0	0	492	
4	0	0	0	0	515	
5	0	0	0	0	487	
6	0	0	0	0	515	
7	0	0	0	0	487	
8	0	0	0	0	520	
9	0	0	0	0	496	
10	0	0	0	0	516	
11	0	0	0	0	485	
12	0	0	0	0	504	
13	0	0	0	0	494	
14	0	0	0	0	511	
15	0	0	0	0	481	
0	0	0	0	0	508	
1	0	0	0	0	475	
2	0	0	0	0	515	
3	0	0	0	0	482	
4	0	0	0	0	497	
5	0	0	0	0	485	
6	0	0	0	0	503	
7	0	0	0	0	485	
8	0	0	0	0	505	
9	0	0	0	0	476	
10	0	0	0	0	511	
11	0	0	0	0	481	
12	0	0	0	0	511	
13	0	0	0	0	488	
14	0	0	0	0	523	
15	0	0	0	0	487	
0	0	0	0	0	520	
1	0	0	0	0	491	
2	0	0	0	0	515	
3	0	0	0	0	496	
4	0	0	0	0	520	
5	0	0	0	0	499	
6	0	0	0	0	519	
7	0	0	0	0	498	
8	0	0	0	0	528	
9	0	0	0	0	498	
10	0	0	0	0	524	
11	0	0	0	0	499	
12	0	0	0	0	525	
13	0	0	0	0	507	
14	0	0	0	0	532	
15	0	0	0	0	500	
0	0	0	0	0	531	
1	0	0	0	0	492	
2	0	0	0	0	533	
3	0	0	0	0	497	
4	0	0	0	0	527	
5	0	0	0	0	506	
6	0	0	0	0	530	
7	0	0	0	0	493	
8	0	0	0	0	529	
9	0	0	0	0	513	
10	0	0	0	0	517	
11	0	0	0	0	508	
12	0	0	0	0	531	
13	0	0	0	0	510	
14	0	0	0	0	529	
15	0	0	0	0	490	
0	0	0	0	0	531	
1	0	0	0	0	510	
2	0	0	0	0	531	
3	0	0	0	0	508	
4	0	0	0	0	537	
5	0	0	0	0	499	
6	0	0	0	0	530	
7	0	0	0	0	500	
8	0	0	0	0	530	
9	0	0	0	0	465	
10	0	0	0	0	492	
11	0	0	0	0	646	
12	0	0	0	0	839	
13	0	0	0	0	772	
14	0	0	0	0	620	
15	0	0	0	0	467	
0	0	0	0	0	437	
1	0	0	0	0	400	
2	0	0	0	0	435	
3	0	0	0	0	412	
4	0	0	0	0	447	
5	0	0	0	0	435	
6	0	0	0	0	474	
7	0	0	0	0	439	
8	0	0	0	0	482	
9	0	0	0	0	458	
10	0	0	0	0	493	
11	0	0	0	0	469	
12	0	0	0	0	507	
13	0	0	0	0	473	
14	0	0	0	0	516	
15	0	0	0	0	494	
0	0	0	0	0	520	
1	0	0	0	0	505	
2	0	0	0	0	521	
3	0	0	0	0	499	
4	0	0	0	0	530	
5	0	0	0	0	516	
6	0	0	0	0	540	
7	0	0	0	0	519	
8	0	0	0	0	550	
9	0	0	0	0	520	
10	0	0	0	0	556	
11	0	0	0	0	519	
12	0	0	0	0	548	
13	0	0	0	0	504	
14	0	0	0	0	520	
15	0	0	0	0	477	
0	0	0	0	0	500	
1	0	0	0	0	466	
2	0	0	0	0	496	
3	0	0	0	0	476	
4	0	0	0	0	501	
5	0	0	0	0	480	
6	0	0	0	0	506	
7	0	0	0	0	485	
8	0	0	0	0	510	
9	0	0	0	0	480	
10	0	0	0	0	526	
11	0	0	0	0	503	
12	0	0	0	0	525	
13	0	0	0	0	505	
14	0	0	0	0	533	
15	0	0	0	0	508	
0	0	0	0	0	529	
1	0	0	0	0	517	
2	0	0	0	0	536	
3	0	0	0	0	512	
4	0	0	0	0	539	
5	0	0	0	0	503	
6	0	0	0	0	534	
7	0	0	0	0	508	
8	0	0	0	0	536	
9	0	0	0	0	508	
10	0	0	0	0	524	
11	0	0	0	0	506	
12	0	0	0	0	525	
13	0	0	0	0	504	
14	0	0	0	0	532	
15	0	0	0	0	504	
0	0	0	0	0	525	
1	0	0	0	0	500	
2	0	0	0	0	529	
3	0	0	0	0	503	
4	0	0	0	0	531	
5	0	0	0	0	498	
6	0	0	0	0	528	
7	0	0	0	0	503	
8	0	0	0	0	525	
9	0	0	0	0	498	
10	0	0	0	0	525	
11	0	0	0	0	499	
12	0	0	0	0	526	
13	0	0	0	0	499	
14	0	0	0	0	518	
15	0	0	0	0	493	
0	0	0	0	0	524	
1	0	0	0	0	488	
2	0	0	0	0	512	
3	0	0	0	0	487	
4	0	0	0	0	518	
5	0	0	0	0	489	
6	0	0	0	0	521	
7	0	0	0	0	493	
8	0	0	0	0	521	
9	0	0	0	0	493	
10	0	0	0	0	521	
11	0	0	0	0	495	
12	0	0	0	0	521	
13	0	0	0	0	490	
14	0	0	0	0	514	
15	0	0	0	0	491	
0	0	0	0	0	523	
1	0	0	0	0	486	
2	0	0	0	0	518	
3	0	0	0	0	492	
4	0	0	0	0	518	
5	0	0	0	0	483	
6	0	0	0	0	514	
7	0	0	0	0	488	
8	0	0	0	0	516	
9	0	0	0	0	492	
10	0	0	0	0	517	
11	0	0	0	0	492	
12	0	0	0	0	518	
13	0	0	0	0	474	
14	0	0	0	0	514	
15	0	0	0	0	484	
0	0	0	0	0	512	
1	0	0	0	0	478	
2	0	0	0	0	513	
3	0	0	0	0	490	
4	0	0	0	0	514	
5	0	0	0	0	497	
6	0	0	0	0	519	
7	0	0	0	0	489	
8	0	0	0	0	461	
9	0	0	0	0	483	
10	0	0	0	0	724	
11	0	0	0	0	902	
12	0	0	0	0	759	
13	0	0	0	0	541	
14	0	0	0	0	450	
15	0	0	0	0	402	
0	0	0	0	0	433	
1	0	0	0	0	413	
2	0	0	0	0	442	
3	0	0	0	0	428	
4	0	0	0	0	464	
5	0	0	0	0	447	
6	0	0	0	0	480	
7	0	0	0	0	455	
8	0	0	0	0	494	
9	0	0	0	0	466	
10	0	0	0	0	508	
11	0	0	0	0	479	
12	0	0	0	0	510	
13	0	0	0	0	490	
14	0	0	0	0	514	
15	0	0	0	0	504	
0	0	0	0	0	526	
1	0	0	0	0	496	
2	0	0	0	0	525	
3	0	0	0	0	505	
4	0	0	0	0	528	
5	0	0	0	0	508	
6	0	0	0	0	535	
7	0	0	0	0	512	
8	0	0	0	0	540	
9	0	0	0	0	506	
10	0	0	0	0	534	
11	0	0	0	0	510	
12	0	0	0	0	525	
13	0	0	0	0	485	
14	0	0	0	0	498	
15	0	0	0	0	467	
0	0	0	0	0	484	
1	0	0	0	0	459	
2	0	0	0	0	487	
3	0	0	0	0	465	
4	0	0	0	0	499	
5	0	0	0	0	481	
6	0	0	0	0	503	
7	0	0	0	0	482	
8	0	0	0	0	511	
9	0	0	0	0	491	
10	0	0	0	0	514	
11	0	0	0	0	489	
12	0	0	0	0	515	
13	0	0	0	0	499	
14	0	0	0	0	525	
15	0	0	0	0	499	
0	0	0	0	0	533	
1	0	0	0	0	500	
2	0	0	0	0	524	
3	0	0	0	0	504	
4	0	0	0	0	529	
5	0	0	0	0	501	
6	0	0	0	0	524	
7	0	0	0	0	505	
8	0	0	0	0	527	
9	0	0	0	0	496	
10	0	0	0	0	521	
11	0	0	0	0	496	
12	0	0	0	0	522	
13	0	0	0	0	496	
14	0	0	0	0	528	
15	0	0	0	0	496	
0	0	0	0	0	522	
1	0	0	0	0	501	
2	0	0	0	0	518	
3	0	0	0	0	501	
4	0	0	0	0	520	
5	0	0	0	0	495	
6	0	0	0	0	524	
7	0	0	0	0	499	
8	0	0	0	0	527	
9	0	0	0	0	492	
10	0	0	0	0	514	
11	0	0	0	0	495	
12	0	0	0	0	524	
13	0	0	0	0	496	
14	0	0	0	0	519	
15	0	0	0	0	500	
0	0	0	0	0	523	
1	0	0	0	0	496	
2	0	0	0	0	517	
3	0	0	0	0	499	
4	0	0	0	0	510	
5	0	0	0	0	483	
6	0	0	0	0	522	
7	0	0	0	0	495	
8	0	0	0	0	515	
9	0	0	0	0	493	
10	0	0	0	0	516	
11	0	0	0	0	497	
12	0	0	0	0	521	
13	0	0	0	0	487	
14	0	0	0	0	520	
15	0	0	0	0	494	
0	0	0	0	0	516	
1	0	0	0	0	491	
2	0	0	0	0	523	
3	0	0	0	0	492	
4	0	0	0	0	524	
5	0	0	0	0	495	
6	0	0	0	0	519	
7	0	0	0	0	497	
8	0	0	0	0	519	
9	0	0	0	0	491	
10	0	0	0	0	510	
11	0	0	0	0	493	
12	0	0	0	0	516	
13	0	0	0	0	495	
14	0	0	0	0	525	
15	0	0	0	0	500	
0	0	0	0	0	511	
1	0	0	0	0	498	
2	0	0	0	0	523	
3	0	0	0	0	492	
4	0	0	0	0	522	
5	0	0	0	0	506	
6	0	0	0	0	523	
7	0	0	0	0	498	
8	0	0	0	0	521	
9	0	0	0	0	500	
10	0	0	0	0	525	
11	0	0	0	0	440	
12	0	0	0	0	509	
13	0	0	0	0	696	
14	0	0	0	0	921	
15	0	0	0	0	736	
0	0	0	0	0	556	
1	0	0	0	0	422	
2	0	0	0	0	419	
3	0	0	0	0	403	
4	0	0	0	0	420	
5	0	0	0	0	416	
6	0	0	0	0	448	
7	0	0	0	0	421	
8	0	0	0	0	468	
9	0	0	0	0	453	
10	0	0	0	0	477	
11	0	0	0	0	463	
12	0	0	0	0	492	
13	0	0	0	0	471	
14	0	0	0	0	499	
15	0	0	0	0	479	
0	0	0	0	0	514	
1	0	0	0	0	483	
2	0	0	0	0	507	
3	0	0	0	0	493	
4	0	0	0	0	520	
5	0	0	0	0	487	
6	0	0	0	0	516	
7	0	0	0	0	497	
8	0	0	0	0	528	
9	0	0	0	0	507	
10	0	0	0	0	526	
11	0	0	0	0	508	
12	0	0	0	0	526	
13	0	0	0	0	501	
14	0	0	0	0	523	
15	0	0	0	0	491	
0	0	0	0	0	498	
1	0	0	0	0	469	
2	0	0	0	0	489	
3	0	0	0	0	462	
4	0	0	0	0	483	
5	0	0	0	0	457	
6	0	0	0	0	495	
7	0	0	0	0	472	
8	0	0	0	0	496	
9	0	0	0	0	483	
10	0	0	0	0	504	
11	0	0	0	0	482	
12	0	0	0	0	514	
13	0	0	0	0	492	
14	0	0	0	0	514	
15	0	0	0	0	496	
0	0	0	0	0	515	
1	0	0	0	0	491	
2	0	0	0	0	529	
3	0	0	0	0	508	
4	0	0	0	0	531	
5	0	0	0	0	508	
6	0	0	0	0	535	
7	0	0	0	0	508	
8	0	0	0	0	522	
9	0	0	0	0	515	
10	0	0	0	0	532	
11	0	0	0	0	505	
12	0	0	0	0	527	
13	0	0	0	0	500	
14	0	0	0	0	524	
15	0	0	0	0	501	
0	0	0	0	0	518	
1	0	0	0	0	504	
2	0	0	0	0	520	
3	0	0	0	0	501	
4	0	0	0	0	532	
5	0	0	0	0	502	
6	0	0	0	0	528	
7	0	0	0	0	505	
8	0	0	0	0	525	
9	0	0	0	0	502	
10	0	0	0	0	524	
11	0	0	0	0	497	
12	0	0	0	0	528	
13	0	0	0	0	506	
14	0	0	0	0	517	
15	0	0	0	0	497	
0	0	0	0	0	521	
1	0	0	0	0	496	
2	0	0	0	0	522	
3	0	0	0	0	497	
4	0	0	0	0	514	
5	0	0	0	0	490	
6	0	0	0	0	516	
7	0	0	0	0	481	
8	0	0	0	0	514	
9	0	0	0	0	494	
10	0	0	0	0	510	
11	0	0	0	0	496	
12	0	0	0	0	516	
13	0	0	0	0	489	
14	0	0	0	0	512	
15	0	0	0	0	490	
0	0	0	0	0	507	
1	0	0	0	0	497	
2	0	0	0	0	513	
3	0	0	0	0	492	
4	0	0	0	0	515	
5	0	0	0	0	494	
6	0	0	0	0	516	
7	0	0	0	0	485	
8	0	0	0	0	508	
9	0	0	0	0	489	
10	0	0	0	0	512	
11	0	0	0	0	489	
12	0	0	0	0	505	
13	0	0	0	0	488	
14	0	0	0	0	510	
15	0	0	0	0	485	
0	0	0	0	0	519	
1	0	0	0	0	499	
2	0	0	0	0	518	
3	0	0	0	0	484	
4	0	0	0	0	509	
5	0	0	0	0	494	
6	0	0	0	0	491	
7	0	0	0	0	503	
8	0	0	0	0	523	
9	0	0	0	0	496	
10	0	0	0	0	518	
11	0	0	0	0	495	
12	0	0	0	0	517	
13	0	0	0	0	482	
14	0	0	0	0	468	
15	0	0	0	0	591	
0	0	0	0	0	801	
1	0	0	0	0	819	
2	0	0	0	0	658	
3	0	0	0	0	501	
4	0	0	0	0	435	
5	0	0	0	0	404	
6	0	0	0	0	433	
7	0	0	0	0	408	
8	0	0	0	0	448	
9	0	0	0	0	433	
10	0	0	0	0	461	
11	0	0	0	0	449	
12	0	0	0	0	471	
13	0	0	0	0	470	
14	0	0	0	0	492	
15	0	0	0	0	476	
0	0	0	0	0	508	
1	0	0	0	0	485	
2	0	0	0	0	512	
3	0	0	0	0	496	
4	0	0	0	0	525	
5	0	0	0	0	504	
6	0	0	0	0	529	
7	0	0	0	0	519	
8	0	0	0	0	536	
9	0	0	0	0	525	
10	0	0	0	0	545	
11	0	0	0	0	520	
12	0	0	0	0	550	
13	0	0	0	0	513	
14	0	0	0	0	552	
15	0	0	0	0	526	
0	0	0	0	0	542	
1	0	0	0	0	515	
2	0	0	0	0	527	
3	0	0	0	0	486	
4	0	0	0	0	499	
5	0	0	0	0	474	
6	0	0	0	0	500	
7	0	0	0	0	477	
8	0	0	0	0	499	
9	0	0	0	0	483	
10	0	0	0	0	508	
11	0	0	0	0	492	
12	0	0	0	0	511	
13	0	0	0	0	502	
14	0	0	0	0	518	
15	0	0	0	0	493	
0	0	0	0	0	525	
1	0	0	0	0	505	
2	0	0	0	0	523	
3	0	0	0	0	508	
4	0	0	0	0	532	
5	0	0	0	0	513	
6	0	0	0	0	532	
7	0	0	0	0	509	
8	0	0	0	0	526	
9	0	0	0	0	504	
10	0	0	0	0	520	
11	0	0	0	0	505	
12	0	0	0	0	522	
13	0	0	0	0	493	
14	0	0	0	0	522	
15	0	0	0	0	495	
0	0	0	0	0	519	
1	0	0	0	0	499	
2	0	0	0	0	515	
3	0	0	0	0	493	
4	0	0	0	0	520	
5	0	0	0	0	503	
6	0	0	0	0	509	
7	0	0	0	0	498	
8	0	0	0	0	520	
9	0	0	0	0	496	
10	0	0	0	0	520	
11	0	0	0	0	492	
12	0	0	0	0	512	
13	0	0	0	0	494	
14	0	0	0	0	522	
15	0	0	0	0	499	
0	0	0	0	0	518	
1	0	0	0	0	505	
2	0	0	0	0	522	
3	0	0	0	0	498	
4	0	0	0	0	515	
5	0	0	0	0	502	
6	0	0	0	0	527	
7	0	0	0	0	501	
8	0	0	0	0	516	
9	0	0	0	0	494	
10	0	0	0	0	526	
11	0	0	0	0	499	
12	0	0	0	0	522	
13	0	0	0	0	504	
14	0	0	0	0	519	
15	0	0	0	0	504	
0	0	0	0	0	525	
1	0	0	0	0	509	
2	0	0	0	0	518	
3	0	0	0	0	509	
4	0	0	0	0	527	
5	0	0	0	0	502	
6	0	0	0	0	525	
7	0	0	0	0	505	
8	0	0	0	0	527	
9	0	0	0	0	509	
10	0	0	0	0	530	
11	0	0	0	0	504	
12	0	0	0	0	531	
13	0	0	0	0	502	
14	0	0	0	0	532	
15	0	0	0	0	500	
0	0	0	0	0	528	
1	0	0	0	0	504	
2	0	0	0	0	514	
3	0	0	0	0	492	
4	0	0	0	0	522	
5	0	0	0	0	499	
6	0	0	0	0	512	
7	0	0	0	0	512	
8	0	0	0	0	524	
9	0	0	0	0	501	
10	0	0	0	0	526	
11	0	0	0	0	511	
12	0	0	0	0	520	
13	0	0	0	0	456	
14	0	0	0	0	512	
15	0	0	0	0	701	
0	0	0	0	0	918	
1	0	0	0	0	740	
2	0	0	0	0	579	
3	0	0	0	0	438	
4	0	0	0	0	433	
5	0	0	0	0	407	
6	0	0	0	0	438	
7	0	0	0	0	422	
8	0	0	0	0	448	
9	0	0	0	0	439	
10	0	0	0	0	467	
11	0	0	0	0	457	
12	0	0	0	0	481	
13	0	0	0	0	470	
14	0	0	0	0	494	
15	0	0	0	0	479	
0	0	0	0	0	505	
1	0	0	0	0	487	
2	0	0	0	0	507	
3	0	0	0	0	480	
4	0	0	0	0	517	
5	0	0	0	0	493	
6	0	0	0	0	518	
7	0	0	0	0	497	
8	0	0	0	0	515	
9	0	0	0	0	498	
10	0	0	0	0	520	
11	0	0	0	0	511	
12	0	0	0	0	535	
13	0	0	0	0	501	
14	0	0	0	0	531	
15	0	0	0	0	515	
0	0	0	0	0	531	
1	0	0	0	0	502	
2	0	0	0	0	511	
3	0	0	0	0	472	
4	0	0	0	0	490	
5	0	0	0	0	460	
6	0	0	0	0	488	
7	0	0	0	0	475	
8	0	0	0	0	494	
9	0	0	0	0	483	
10	0	0	0	0	506	
11	0	0	0	0	493	
12	0	0	0	0	507	
13	0	0	0	0	494	
14	0	0	0	0	519	
15	0	0	0	0	498	
0	0	0	0	0	523	
1	0	0	0	0	500	
2	0	0	0	0	529	
3	0	0	0	0	499	
4	0	0	0	0	531	
5	0	0	0	0	508	
6	0	0	0	0	519	
7	0	0	0	0	501	
8	0	0	0	0	533	
9	0	0	0	0	512	
10	0	0	0	0	522	
11	0	0	0	0	493	
12	0	0	0	0	528	
13	0	0	0	0	506	
14	0	0	0	0	524	
15	0	0	0	0	503	
0	0	0	0	0	523	
1	0	0	0	0	505	
2	0	0	0	0	517	
3	0	0	0	0	502	
4	0	0	0	0	518	
5	0	0	0	0	504	
6	0	0	0	0	509	
7	0	0	0	0	494	
8	0	0	0	0	519	
9	0	0	0	0	505	
10	0	0	0	0	522	
11	0	0	0	0	478	
12	0	0	0	0	517	
13	0	0	0	0	491	
14	0	0	0	0	509	
15	0	0	0	0	483	
0	0	0	0	0	507	
1	0	0	0	0	478	
2	0	0	0	0	500	
3	0	0	0	0	479	
4	0	0	0	0	495	
5	0	0	0	0	477	
6	0	0	0	0	505	
7	0	0	0	0	475	
8	0	0	0	0	504	
9	0	0	0	0	466	
10	0	0	0	0	510	
11	0	0	0	0	482	
12	0	0	0	0	502	
13	0	0	0	0	478	
14	0	0	0	0	512	
15	0	0	0	0	481	
0	0	0	0	0	497	
1	0	0	0	0	489	
2	0	0	0	0	509	
3	0	0	0	0	483	
4	0	0	0	0	507	
5	0	0	0	0	494	
6	0	0	0	0	507	
7	0	0	0	0	496	
8	0	0	0	0	513	
9	0	0	0	0	497	
10	0	0	0	0	516	
11	0	0	0	0	482	
12	0	0	0	0	514	
13	0	0	0	0	497	
14	0	0	0	0	510	
15	0	0	0	0	493	
0	0	0	0	0	525	
1	0	0	0	0	489	
2	0	0	0	0	529	
3	0	0	0	0	521	
4	0	0	0	0	528	
5	0	0	0	0	492	
6	0	0	0	0	519	
7	0	0	0	0	491	
8	0	0	0	0	505	
9	0	0	0	0	497	
10	0	0	0	0	517	
11	0	0	0	0	510	
12	0	0	0	0	500	
13	0	0	0	0	444	
14	0	0	0	0	618	
15	0	0	0	0	824	
0	0	0	0	0	893	
1	0	0	0	0	627	
2	0	0	0	0	504	
3	0	0	0	0	408	
4	0	0	0	0	430	
5	0	0	0	0	415	
6	0	0	0	0	433	
7	0	0	0	0	430	
8	0	0	0	0	457	
9	0	0	0	0	448	
10	0	0	0	0	476	
11	0	0	0	0	470	
12	0	0	0	0	493	
13	0	0	0	0	475	
14	0	0	0	0	505	
15	0	0	0	0	483	
0	0	0	0	0	508	
1	0	0	0	0	495	
2	0	0	0	0	519	
3	0	0	0	0	491	
4	0	0	0	0	516	
5	0	0	0	0	490	
6	0	0	0	0	518	
7	0	0	0	0	496	
8	0	0	0	0	513	
9	0	0	0	0	516	
10	0	0	0	0	524	
11	0	0	0	0	501	
12	0	0	0	0	520	
13	0	0	0	0	503	
14	0	0	0	0	518	
15	0	0	0	0	499	
0	0	0	0	0	505	
1	0	0	0	0	473	
2	0	0	0	0	483	
3	0	0	0	0	447	
4	0	0	0	0	459	
5	0	0	0	0	440	
6	0	0	0	0	459	
7	0	0	0	0	451	
8	0	0	0	0	479	
9	0	0	0	0	460	
10	0	0	0	0	480	
11	0	0	0	0	455	
12	0	0	0	0	490	
13	0	0	0	0	477	
14	0	0	0	0	489	
15	0	0	0	0	481	
0	0	0	0	0	503	
1	0	0	0	0	483	
2	0	0	0	0	505	
3	0	0	0	0	499	
4	0	0	0	0	510	
5	0	0	0	0	502	
6	0	0	0	0	525	
7	0	0	0	0	500	
8	0	0	0	0	520	
9	0	0	0	0	502	
10	0	0	0	0	515	
11	0	0	0	0	499	
12	0	0	0	0	518	
13	0	0	0	0	493	
14	0	0	0	0	516	
15	0	0	0	0	499	
0	0	0	0	0	524	
1	0	0	0	0	494	
2	0	0	0	0	522	
3	0	0	0	0	494	
4	0	0	0	0	529	
5	0	0	0	0	498	
6	0	0	0	0	534	
7	0	0	0	0	509	
8	0	0	0	0	530	
9	0	0	0	0	500	
10	0	0	0	0	534	
11	0	0	0	0	514	
12	0	0	0	0	537	
13	0	0	0	0	508	
14	0	0	0	0	532	
15	0	0	0	0	516	
0	0	0	0	0	530	
1	0	0	0	0	515	
2	0	0	0	0	531	
3	0	0	0	0	500	
4	0	0	0	0	529	
5	0	0	0	0	513	
6	0	0	0	0	533	
7	0	0	0	0	504	
8	0	0	0	0	520	
9	0	0	0	0	504	
10	0	0	0	0	516	
11	0	0	0	0	500	
12	0	0	0	0	519	
13	0	0	0	0	497	
14	0	0	0	0	514	
15	0	0	0	0	500	
0	0	0	0	0	524	
1	0	0	0	0	493	
2	0	0	0	0	518	
3	0	0	0	0	498	
4	0	0	0	0	519	
5	0	0	0	0	495	
6	0	0	0	0	521	
7	0	0	0	0	505	
8	0	0	0	0	533	
9	0	0	0	0	512	
10	0	0	0	0	530	
11	0	0	0	0	515	
12	0	0	0	0	551	
13	0	0	0	0	547	
14	0	0	0	0	565	
15	0	0	0	0	532	
0	0	0	0	0	527	
1	0	0	0	0	516	
2	0	0	0	0	529	
3	0	0	0	0	498	
4	0	0	0	0	526	
5	0	0	0	0	512	
6	0	0	0	0	531	
7	0	0	0	0	465	
8	0	0	0	0	483	
9	0	0	0	0	640	
10	0	0	0	0	883	
11	0	0	0	0	803	
12	0	0	0	0	602	
13	0	0	0	0	452	
14	0	0	0	0	432	
15	0	0	0	0	401	
0	0	0	0	0	421	
1	0	0	0	0	425	
2	0	0	0	0	447	
3	0	0	0	0	436	
4	0	0	0	0	458	
5	0	0	0	0	447	
6	0	0	0	0	476	
7	0	0	0	0	461	
8	0	0	0	0	480	
9	0	0	0	0	479	
10	0	0	0	0	494	
11	0	0	0	0	483	
12	0	0	0	0	509	
13	0	0	0	0	486	
14	0	0	0	0	499	
15	0	0	0	0	489	
0	0	0	0	0	507	
1	0	0	0	0	493	
2	0	0	0	0	516	
3	0	0	0	0	496	
4	0	0	0	0	513	
5	0	0	0	0	490	
6	0	0	0	0	506	
7	0	0	0	0	500	
8	0	0	0	0	520	
9	0	0	0	0	505	
10	0	0	0	0	506	
11	0	0	0	0	485	
12	0	0	0	0	504	
13	0	0	0	0	441	
14	0	0	0	0	476	
15	0	0	0	0	454	
0	0	0	0	0	470	
1	0	0	0	0	453	
2	0	0	0	0	471	
3	0	0	0	0	462	
4	0	0	0	0	481	
5	0	0	0	0	465	
6	0	0	0	0	481	
7	0	0	0	0	500	
8	0	0	0	0	508	
9	0	0	0	0	487	
10	0	0	0	0	491	
11	0	0	0	0	493	
12	0	0	0	0	526	
13	0	0	0	0	482	
14	0	0	0	0	496	
15	0	0	0	0	496	
0	0	0	0	0	521	
1	0	0	0	0	507	
2	0	0	0	0	526	
3	0	0	0	0	513	
4	0	0	0	0	501	
5	0	0	0	0	525	
6	0	0	0	0	540	
7	0	0	0	0	509	
8	0	0	0	0	523	
9	0	0	0	0	514	
10	0	0	0	0	541	
11	0	0	0	0	511	
12	0	0	0	0	550	
13	0	0	0	0	519	
14	0	0	0	0	543	
15	0	0	0	0	519	
0	0	0	0	0	524	
1	0	0	0	0	523	
2	0	0	0	0	529	
3	0	0	0	0	512	
4	0	0	0	0	540	
5	0	0	0	0	519	
6	0	0	0	0	534	
7	0	0	0	0	513	
8	0	0	0	0	527	
9	0	0	0	0	519	
10	0	0	0	0	536	
11	0	0	0	0	514	
12	0	0	0	0	529	
13	0	0	0	0	497	
14	0	0	0	0	536	
15	0	0	0	0	519	
0	0	0	0	0	515	
1	0	0	0	0	523	
2	0	0	0	0	533	
3	0	0	0	0	508	
4	0	0	0	0	524	
5	0	0	0	0	505	
6	0	0	0	0	517	
7	0	0	0	0	499	
8	0	0	0	0	510	
9	0	0	0	0	474	
10	0	0	0	0	489	
11	0	0	0	0	480	
12	0	0	0	0	487	
13	0	0	0	0	459	
14	0	0	0	0	473	
15	0	0	0	0	462	
0	0	0	0	0	481	
1	0	0	0	0	464	
2	0	0	0	0	479	
3	0	0	0	0	456	
4	0	0	0	0	485	
5	0	0	0	0	465	
6	0	0	0	0	487	
7	0	0	0	0	468	
8	0	0	0	0	495	
9	0	0	0	0	486	
10	0	0	0	0	515	
11	0	0	0	0	516	
12	0	0	0	0	539	
13	0	0	0	0	522	
14	0	0	0	0	525	
15	0	0	0	0	510	
0	0	0	0	0	538	
1	0	0	0	0	513	
2	0	0	0	0	523	
3	0	0	0	0	518	
4	0	0	0	0	537	
5	0	0	0	0	519	
6	0	0	0	0	475	
7	0	0	0	0	532	
8	0	0	0	0	755	
9	0	0	0	0	910	
10	0	0	0	0	730	
11	0	0	0	0	544	
12	0	0	0	0	475	
13	0	0	0	0	439	
14	0	0	0	0	462	
15	0	0	0	0	436	
0	0	0	0	0	463	
1	0	0	0	0	450	
2	0	0	0	0	483	
3	0	0	0	0	475	
4	0	0	0	0	495	
5	0	0	0	0	475	
6	0	0	0	0	507	
7	0	0	0	0	489	
8	0	0	0	0	499	
9	0	0	0	0	490	
10	0	0	0	0	501	
11	0	0	0	0	489	
12	0	0	0	0	511	
13	0	0	0	0	489	
14	0	0	0	0	506	
15	0	0	0	0	495	
0	0	0	0	0	510	
1	0	0	0	0	489	
2	0	0	0	0	503	
3	0	0	0	0	500	
4	0	0	0	0	514	
5	0	0	0	0	499	
6	0	0	0	0	517	
7	0	0	0	0	497	
8	0	0	0	0	523	
9	0	0	0	0	500	
10	0	0	0	0	507	
11	0	0	0	0	494	
12	0	0	0	0	503	
13	0	0	0	0	473	
14	0	0	0	0	491	
15	0	0	0	0	481	
0	0	0	0	0	512	
1	0	0	0	0	486	
2	0	0	0	0	511	
3	0	0	0	0	498	
4	0	0	0	0	525	
5	0	0	0	0	510	
6	0	0	0	0	526	
7	0	0	0	0	528	
8	0	0	0	0	542	
9	0	0	0	0	525	
10	0	0	0	0	545	
11	0	0	0	0	527	
12	0	0	0	0	537	
13	0	0	0	0	529	
14	0	0	0	0	550	
15	0	0	0	0	528	
0	0	0	0	0	546	
1	0	0	0	0	531	
2	0	0	0	0	541	
3	0	0	0	0	524	
4	0	0	0	0	535	
5	0	0	0	0	510	
6	0	0	0	0	535	
7	0	0	0	0	520	
8	0	0	0	0	525	
9	0	0	0	0	508	
10	0	0	0	0	534	
11	0	0	0	0	512	
12	0	0	0	0	532	
13	0	0	0	0	510	
14	0	0	0	0	523	
15	0	0	0	0	507	
0	0	0	0	0	532	
1	0	0	0	0	509	
2	0	0	0	0	529	
3	0	0	0	0	513	
4	0	0	0	0	518	
5	0	0	0	0	513	
6	0	0	0	0	531	
7	0	0	0	0	513	
8	0	0	0	0	522	
9	0	0	0	0	511	
10	0	0	0	0	528	
11	0	0	0	0	510	
12	0	0	0	0	523	
13	0	0	0	0	506	
14	0	0	0	0	527	
15	0	0	0	0	502	
0	0	0	0	0	522	
1	0	0	0	0	508	
2	0	0	0	0	513	
3	0	0	0	0	502	
4	0	0	0	0	513	
5	0	0	0	0	499	
6	0	0	0	0	521	
7	0	0	0	0	490	
8	0	0	0	0	515	
9	0	0	0	0	500	
10	0	0	0	0	509	
11	0	0	0	0	490	
12	0	0	0	0	510	
13	0	0	0	0	489	
14	0	0	0	0	515	
15	0	0	0	0	476	
0	0	0	0	0	511	
1	0	0	0	0	494	
2	0	0	0	0	511	
3	0	0	0	0	494	
4	0	0	0	0	495	
5	0	0	0	0	491	
6	0	0	0	0	525	
7	0	0	0	0	508	
8	0	0	0	0	519	
9	0	0	0	0	491	
10	0	0	0	0	498	
11	0	0	0	0	476	
12	0	0	0	0	498	
13	0	0	0	0	483	
14	0	0	0	0	495	
15	0	0	0	0	481	
0	0	0	0	0	486	
1	0	0	0	0	426	
2	0	0	0	0	566	
3	0	0	0	0	742	
4	0	0	0	0	848	
5	0	0	0	0	646	
6	0	0	0	0	509	
7	0	0	0	0	415	
8	0	0	0	0	414	
9	0	0	0	0	408	
10	0	0	0	0	426	
11	0	0	0	0	425	
12	0	0	0	0	457	
13	0	0	0	0	447	
14	0	0	0	0	476	
15	0	0	0	0	471	
0	0	0	0	0	492	
1	0	0	0	0	485	
2	0	0	0	0	508	
3	0	0	0	0	503	
4	0	0	0	0	525	
5	0	0	0	0	504	
6	0	0	0	0	537	
7	0	0	0	0	527	
8	0	0	0	0	540	
9	0	0	0	0	522	
10	0	0	0	0	543	
11	0	0	0	0	519	
12	0	0	0	0	547	
13	0	0	0	0	534	
14	0	0	0	0	555	
15	0	0	0	0	529	
0	0	0	0	0	557	
1	0	0	0	0	534	
2	0	0	0	0	545	
3	0	0	0	0	521	
4	0	0	0	0	536	
5	0	0	0	0	511	
6	0	0	0	0	508	
7	0	0	0	0	471	
8	0	0	0	0	499	
9	0	0	0	0	485	
10	0	0	0	0	504	
11	0	0	0	0	479	
12	0	0	0	0	512	
13	0	0	0	0	483	
14	0	0	0	0	515	
15	0	0	0	0	495	
0	0	0	0	0	510	
1	0	0	0	0	501	
2	0	0	0	0	531	
3	0	0	0	0	511	
4	0	0	0	0	521	
5	0	0	0	0	508	
6	0	0	0	0	519	
7	0	0	0	0	509	
8	0	0	0	0	527	
9	0	0	0	0	503	
10	0	0	0	0	515	
11	0	0	0	0	498	
12	0	0	0	0	518	
13	0	0	0	0	498	
14	0	0	0	0	513	
15	0	0	0	0	501	
0	0	0	0	0	502	
1	0	0	0	0	492	
2	0	0	0	0	502	
3	0	0	0	0	492	
4	0	0	0	0	507	
5	0	0	0	0	491	
6	0	0	0	0	509	
7	0	0	0	0	487	
8	0	0	0	0	506	
9	0	0	0	0	494	
10	0	0	0	0	511	
11	0	0	0	0	501	
12	0	0	0	0	516	
13	0	0	0	0	500	
14	0	0	0	0	520	
15	0	0	0	0	499	
0	0	0	0	0	513	
1	0	0	0	0	504	
2	0	0	0	0	518	
3	0	0	0	0	499	
4	0	0	0	0	519	
5	0	0	0	0	505	
6	0	0	0	0	528	
7	0	0	0	0	503	
8	0	0	0	0	541	
9	0	0	0	0	537	
10	0	0	0	0	537	
11	0	0	0	0	507	
12	0	0	0	0	504	
13	0	0	0	0	488	
14	0	0	0	0	503	
15	0	0	0	0	483	
0	0	0	0	0	504	
1	0	0	0	0	490	
2	0	0	0	0	488	
3	0	0	0	0	425	
4	0	0	0	0	554	
5	0	0	0	0	749	
6	0	0	0	0	887	
7	0	0	0	0	656	
8	0	0	0	0	522	
9	0	0	0	0	408	
10	0	0	0	0	418	
11	0	0	0	0	408	
12	0	0	0	0	432	
13	0	0	0	0	420	
14	0	0	0	0	446	
15	0	0	0	0	442	
0	0	0	0	0	459	
1	0	0	0	0	456	
2	0	0	0	0	479	
3	0	0	0	0	472	
4	0	0	0	0	496	
5	0	0	0	0	482	
6	0	0	0	0	509	
7	0	0	0	0	491	
8	0	0	0	0	504	
9	0	0	0	0	493	
10	0	0	0	0	512	
11	0	0	0	0	496	
12	0	0	0	0	520	
13	0	0	0	0	507	
14	0	0	0	0	523	
15	0	0	0	0	509	
0	0	0	0	0	530	
1	0	0	0	0	523	
2	0	0	0	0	536	
3	0	0	0	0	518	
4	0	0	0	0	536	
5	0	0	0	0	527	
6	0	0	0	0	537	
7	0	0	0	0	502	
8	0	0	0	0	508	
9	0	0	0	0	481	
10	0	0	0	0	491	
11	0	0	0	0	484	
12	0	0	0	0	493	
13	0	0	0	0	495	
14	0	0	0	0	517	
15	0	0	0	0	489	
0	0	0	0	0	507	
1	0	0	0	0	495	
2	0	0	0	0	515	
3	0	0	0	0	499	
4	0	0	0	0	519	
5	0	0	0	0	497	
6	0	0	0	0	522	
7	0	0	0	0	496	
8	0	0	0	0	515	
9	0	0	0	0	506	
10	0	0	0	0	521	
11	0	0	0	0	510	
12	0	0	0	0	527	
13	0	0	0	0	507	
14	0	0	0	0	512	
15	0	0	0	0	508	
0	0	0	0	0	521	
1	0	0	0	0	498	
2	0	0	0	0	514	
3	0	0	0	0	499	
4	0	0	0	0	517	
5	0	0	0	0	491	
6	0	0	0	0	500	
7	0	0	0	0	487	
8	0	0	0	0	502	
9	0	0	0	0	486	
10	0	0	0	0	499	
11	0	0	0	0	487	
12	0	0	0	0	502	
13	0	0	0	0	489	
14	0	0	0	0	502	
15	0	0	0	0	492	
0	0	0	0	0	513	
1	0	0	0	0	497	
2	0	0	0	0	504	
3	0	0	0	0	500	
4	0	0	0	0	511	
5	0	0	0	0	507	
6	0	0	0	0	531	
7	0	0	0	0	505	
8	0	0	0	0	536	
9	0	0	0	0	540	
10	0	0	0	0	547	
11	0	0	0	0	523	
12	0	0	0	0	518	
13	0	0	0	0	489	
14	0	0	0	0	494	
15	0	0	0	0	478	
0	0	0	0	0	497	
1	0	0	0	0	483	
2	0	0	0	0	507	
3	0	0	0	0	451	
4	0	0	0	0	462	
5	0	0	0	0	638	
6	0	0	0	0	861	
7	0	0	0	0	783	
8	0	0	0	0	591	
9	0	0	0	0	452	
10	0	0	0	0	415	
11	0	0	0	0	393	
12	0	0	0	0	417	
13	0	0	0	0	414	
14	0	0	0	0	437	
15	0	0	0	0	443	
0	0	0	0	0	446	
1	0	0	0	0	445	
2	0	0	0	0	472	
3	0	0	0	0	466	
4	0	0	0	0	479	
5	0	0	0	0	469	
6	0	0	0	0	491	
7	0	0	0	0	480	
8	0	0	0	0	505	
9	0	0	0	0	498	
10	0	0	0	0	504	
11	0	0	0	0	501	
12	0	0	0	0	512	
13	0	0	0	0	498	
14	0	0	0	0	523	
15	0	0	0	0	508	
0	0	0	0	0	524	
1	0	0	0	0	507	
2	0	0	0	0	531	
3	0	0	0	0	520	
4	0	0	0	0	530	
5	0	0	0	0	514	
6	0	0	0	0	525	
7	0	0	0	0	506	
8	0	0	0	0	495	
9	0	0	0	0	480	
10	0	0	0	0	487	
11	0	0	0	0	467	
12	0	0	0	0	491	
13	0	0	0	0	481	
14	0	0	0	0	496	
15	0	0	0	0	485	
0	0	0	0	0	496	
1	0	0	0	0	492	
2	0	0	0	0	507	
3	0	0	0	0	506	
4	0	0	0	0	518	
5	0	0	0	0	501	
6	0	0	0	0	519	
7	0	0	0	0	503	
8	0	0	0	0	518	
9	0	0	0	0	518	
10	0	0	0	0	524	
11	0	0	0	0	519	
12	0	0	0	0	524	
13	0	0	0	0	529	
14	0	0	0	0	530	
15	0	0	0	0	514	
0	0	0	0	0	526	
1	0	0	0	0	509	
2	0	0	0	0	519	
3	0	0	0	0	514	
4	0	0	0	0	523	
5	0	0	0	0	504	
6	0	0	0	0	513	
7	0	0	0	0	507	
8	0	0	0	0	518	
9	0	0	0	0	509	
10	0	0	0	0	516	
11	0	0	0	0	505	
12	0	0	0	0	515	
13	0	0	0	0	499	
14	0	0	0	0	515	
15	0	0	0	0	507	
0	0	0	0	0	519	
1	0	0	0	0	503	
2	0	0	0	0	517	
3	0	0	0	0	508	
4	0	0	0	0	520	
5	0	0	0	0	506	
6	0	0	0	0	523	
7	0	0	0	0	502	
8	0	0	0	0	522	
9	0	0	0	0	503	
10	0	0	0	0	521	
11	0	0	0	0	512	
12	0	0	0	0	520	
13	0	0	0	0	502	
14	0	0	0	0	518	
15	0	0	0	0	509	
0	0	0	0	0	518	
1	0	0	0	0	503	
2	0	0	0	0	521	
3	0	0	0	0	513	
4	0	0	0	0	516	
5	0	0	0	0	525	
6	0	0	0	0	540	
7	0	0	0	0	508	
8	0	0	0	0	505	
9	0	0	0	0	468	
10	0	0	0	0	461	
11	0	0	0	0	449	
12	0	0	0	0	461	
13	0	0	0	0	444	
14	0	0	0	0	457	
15	0	0	0	0	436	
0	0	0	0	0	396	
1	0	0	0	0	495	
2	0	0	0	0	731	
3	0	0	0	0	856	
4	0	0	0	0	631	
5	0	0	0	0	459	
6	0	0	0	0	394	
7	0	0	0	0	372	
8	0	0	0	0	390	
9	0	0	0	0	392	
10	0	0	0	0	411	
11	0	0	0	0	419	
12	0	0	0	0	440	
13	0	0	0	0	440	
14	0	0	0	0	455	
15	0	0	0	0	460	
0	0	0	0	0	481	
1	0	0	0	0	475	
2	0	0	0	0	491	
3	0	0	0	0	480	
4	0	0	0	0	504	
5	0	0	0	0	493	
6	0	0	0	0	498	
7	0	0	0	0	499	
8	0	0	0	0	510	
9	0	0	0	0	493	
10	0	0	0	0	505	
11	0	0	0	0	499	
12	0	0	0	0	513	
13	0	0	0	0	504	
14	0	0	0	0	529	
15	0	0	0	0	508	
0	0	0	0	0	519	
1	0	0	0	0	520	
2	0	0	0	0	529	
3	0	0	0	0	508	
4	0	0	0	0	515	
5	0	0	0	0	492	
6	0	0	0	0	507	
7	0	0	0	0	497	
8	0	0	0	0	506	
9	0	0	0	0	485	
10	0	0	0	0	513	
11	0	0	0	0	497	
12	0	0	0	0	508	
13	0	0	0	0	496	
14	0	0	0	0	520	
15	0	0	0	0	520	
0	0	0	0	0	524	
1	0	0	0	0	515	
2	0	0	0	0	531	
3	0	0	0	0	517	
4	0	0	0	0	526	
5	0	0	0	0	509	
6	0	0	0	0	515	
7	0	0	0	0	506	
8	0	0	0	0	527	
9	0	0	0	0	507	
10	0	0	0	0	526	
11	0	0	0	0	507	
12	0	0	0	0	521	
13	0	0	0	0	514	
14	0	0	0	0	521	
15	0	0	0	0	507	
0	0	0	0	0	521	
1	0	0	0	0	515	
2	0	0	0	0	524	
3	0	0	0	0	522	
4	0	0	0	0	530	
5	0	0	0	0	519	
6	0	0	0	0	538	
7	0	0	0	0	521	
8	0	0	0	0	532	
9	0	0	0	0	521	
10	0	0	0	0	533	
11	0	0	0	0	517	
12	0	0	0	0	529	
13	0	0	0	0	520	
14	0	0	0	0	534	
15	0	0	0	0	522	
0	0	0	0	0	520	
1	0	0	0	0	522	
2	0	0	0	0	534	
3	0	0	0	0	524	
4	0	0	0	0	529	
5	0	0	0	0	523	
6	0	0	0	0	536	
7	0	0	0	0	524	
8	0	0	0	0	528	
9	0	0	0	0	514	
10	0	0	0	0	528	
11	0	0	0	0	522	
12	0	0	0	0	524	
13	0	0	0	0	512	
14	0	0	0	0	523	
15	0	0	0	0	520	
0	0	0	0	0	522	
1	0	0	0	0	518	
2	0	0	0	0	520	
3	0	0	0	0	512	
4	0	0	0	0	511	
5	0	0	0	0	494	
6	0	0	0	0	521	
7	0	0	0	0	511	
8	0	0	0	0	521	
9	0	0	0	0	506	
10	0	0	0	0	511	
11	0	0	0	0	513	
12	0	0	0	0	518	
13	0	0	0	0	503	
14	0	0	0	0	513	
15	0	0	0	0	505	
0	0	0	0	0	511	
1	0	0	0	0	519	
2	0	0	0	0	524	
3	0	0	0	0	528	
4	0	0	0	0	558	
5	0	0	0	0	520	
6	0	0	0	0	521	
7	0	0	0	0	492	
8	0	0	0	0	488	
9	0	0	0	0	482	
10	0	0	0	0	495	
11	0	0	0	0	485	
12	0	0	0	0	493	
13	0	0	0	0	480	
14	0	0	0	0	438	
15	0	0	0	0	529	
0	0	0	0	0	756	
1	0	0	0	0	892	
2	0	0	0	0	681	
3	0	0	0	0	495	
4	0	0	0	0	421	
5	0	0	0	0	408	
6	0	0	0	0	423	
7	0	0	0	0	430	
8	0	0	0	0	445	
9	0	0	0	0	441	
10	0	0	0	0	458	
11	0	0	0	0	464	
12	0	0	0	0	476	
13	0	0	0	0	481	
14	0	0	0	0	481	
15	0	0	0	0	481	
0	0	0	0	0	504	
1	0	0	0	0	497	
2	0	0	0	0	503	
3	0	0	0	0	504	
4	0	0	0	0	518	
5	0	0	0	0	504	
6	0	0	0	0	515	
7	0	0	0	0	511	
8	0	0	0	0	521	
9	0	0	0	0	514	
10	0	0	0	0	524	
11	0	0	0	0	519	
12	0	0	0	0	520	
13	0	0	0	0	519	
14	0	0	0	0	529	
15	0	0	0	0	512	
0	0	0	0	0	519	
1	0	0	0	0	506	
2	0	0	0	0	505	
3	0	0	0	0	480	
4	0	0	0	0	486	
5	0	0	0	0	469	
6	0	0	0	0	477	
7	0	0	0	0	476	
8	0	0	0	0	482	
9	0	0	0	0	477	
10	0	0	0	0	479	
11	0	0	0	0	496	
12	0	0	0	0	503	
13	0	0	0	0	488	
14	0	0	0	0	504	
15	0	0	0	0	495	
0	0	0	0	0	502	
1	0	0	0	0	504	
2	0	0	0	0	514	
3	0	0	0	0	507	
4	0	0	0	0	512	
5	0	0	0	0	505	
6	0	0	0	0	509	
7	0	0	0	0	499	
8	0	0	0	0	511	
9	0	0	0	0	510	
10	0	0	0	0	510	
11	0	0	0	0	499	
12	0	0	0	0	503	
13	0	0	0	0	499	
14	0	0	0	0	508	
15	0	0	0	0	500	
0	0	0	0	0	502	
1	0	0	0	0	497	
2	0	0	0	0	506	
3	0	0	0	0	507	
4	0	0	0	0	503	
5	0	0	0	0	493	
6	0	0	0	0	505	
7	0	0	0	0	496	
8	0	0	0	0	499	
9	0	0	0	0	490	
10	0	0	0	0	495	
11	0	0	0	0	494	
12	0	0	0	0	494	
13	0	0	0	0	489	
14	0	0	0	0	493	
15	0	0	0	0	493	
0	0	0	0	0	494	
1	0	0	0	0	480	
2	0	0	0	0	498	
3	0	0	0	0	482	
4	0	0	0	0	495	
5	0	0	0	0	491	
6	0	0	0	0	496	
7	0	0	0	0	498	
8	0	0	0	0	505	
9	0	0	0	0	506	
10	0	0	0	0	502	
11	0	0	0	0	509	
12	0	0	0	0	507	
13	0	0	0	0	510	
14	0	0	0	0	508	
15	0	0	0	0	505	
0	0	0	0	0	512	
1	0	0	0	0	503	
2	0	0	0	0	509	
3	0	0	0	0	504	
4	0	0	0	0	497	
5	0	0	0	0	497	
6	0	0	0	0	516	
7	0	0	0	0	506	
8	0	0	0	0	506	
9	0	0	0	0	519	
10	0	0	0	0	546	
11	0	0	0	0	532	
12	0	0	0	0	524	
13	0	0	0	0	520	
14	0	0	0	0	520	
15	0	0	0	0	499	
0	0	0	0	0	512	
1	0	0	0	0	509	
2	0	0	0	0	510	
3	0	0	0	0	505	
4	0	0	0	0	485	
5	0	0	0	0	459	
6	0	0	0	0	627	
7	0	0	0	0	799	
8	0	0	0	0	832	
9	0	0	0	0	623	
10	0	0	0	0	480	
11	0	0	0	0	411	
12	0	0	0	0	410	
13	0	0	0	0	414	
14	0	0	0	0	428	
15	0	0	0	0	419	
0	0	0	0	0	450	
1	0	0	0	0	457	
2	0	0	0	0	467	
3	0	0	0	0	455	
4	0	0	0	0	477	
5	0	0	0	0	482	
6	0	0	0	0	487	
7	0	0	0	0	490	
8	0	0	0	0	524	
9	0	0	0	0	507	
10	0	0	0	0	512	
11	0	0	0	0	521	
12	0	0	0	0	530	
13	0	0	0	0	532	
14	0	0	0	0	528	
15	0	0	0	0	515	
0	0	0	0	0	538	
1	0	0	0	0	534	
2	0	0	0	0	539	
3	0	0	0	0	540	
4	0	0	0	0	534	
5	0	0	0	0	538	
6	0	0	0	0	544	
7	0	0	0	0	531	
8	0	0	0	0	519	
9	0	0	0	0	512	
10	0	0	0	0	497	
11	0	0	0	0	491	
12	0	0	0	0	502	
13	0	0	0	0	497	
14	0	0	0	0	510	
15	0	0	0	0	511	
0	0	0	0	0	511	
1	0	0	0	0	505	
2	0	0	0	0	512	
3	0	0	0	0	519	
4	0	0	0	0	512	
5	0	0	0	0	517	
6	0	0	0	0	518	
7	0	0	0	0	518	
8	0	0	0	0	526	
9	0	0	0	0	519	
10	0	0	0	0	527	
11	0	0	0	0	529	
12	0	0	0	0	525	
13	0	0	0	0	537	
14	0	0	0	0	531	
15	0	0	0	0	515	
0	0	0	0	0	524	
1	0	0	0	0	522	
2	0	0	0	0	528	
3	0	0	0	0	524	
4	0	0	0	0	531	
5	0	0	0	0	521	
6	0	0	0	0	512	
7	0	0	0	0	524	
8	0	0	0	0	522	
9	0	0	0	0	515	
10	0	0	0	0	520	
11	0	0	0	0	525	
12	0	0	0	0	521	
13	0	0	0	0	521	
14	0	0	0	0	521	
15	0	0	0	0	515	
0	0	0	0	0	539	
1	0	0	0	0	524	
2	0	0	0	0	534	
3	0	0	0	0	531	
4	0	0	0	0	507	
5	0	0	0	0	536	
6	0	0	0	0	531	
7	0	0	0	0	527	
8	0	0	0	0	521	
9	0	0	0	0	527	
10	0	0	0	0	539	
11	0	0	0	0	528	
12	0	0	0	0	546	
13	0	0	0	0	559	
14	0	0	0	0	563	
15	0	0	0	0	536	
0	0	0	0	0	512	
1	0	0	0	0	505	
2	0	0	0	0	491	
3	0	0	0	0	492	
4	0	0	0	0	494	
5	0	0	0	0	488	
6	0	0	0	0	497	
7	0	0	0	0	469	
8	0	0	0	0	420	
9	0	0	0	0	569	
10	0	0	0	0	768	
11	0	0	0	0	863	
12	0	0	0	0	650	
13	0	0	0	0	484	
14	0	0	0	0	403	
15	0	0	0	0	379	
0	0	0	0	0	392	
1	0	0	0	0	397	
2	0	0	0	0	400	
3	0	0	0	0	422	
4	0	0	0	0	422	
5	0	0	0	0	429	
6	0	0	0	0	434	
7	0	0	0	0	443	
8	0	0	0	0	451	
9	0	0	0	0	451	
10	0	0	0	0	470	
11	0	0	0	0	471	
12	0	0	0	0	483	
13	0	0	0	0	479	
14	0	0	0	0	487	
15	0	0	0	0	496	
0	0	0	0	0	502	
1	0	0	0	0	499	
2	0	0	0	0	524	
3	0	0	0	0	507	
4	0	0	0	0	525	
5	0	0	0	0	524	
6	0	0	0	0	531	
7	0	0	0	0	531	
8	0	0	0	0	540	
9	0	0	0	0	537	
10	0	0	0	0	530	
11	0	0	0	0	515	
12	0	0	0	0	506	
13	0	0	0	0	491	
14	0	0	0	0	496	
15	0	0	0	0	486	
0	0	0	0	0	495	
1	0	0	0	0	497	
2	0	0	0	0	498	
3	0	0	0	0	497	
4	0	0	0	0	499	
5	0	0	0	0	509	
6	0	0	0	0	511	
7	0	0	0	0	513	
8	0	0	0	0	513	
9	0	0	0	0	511	
10	0	0	0	0	519	
11	0	0	0	0	521	
12	0	0	0	0	529	
13	0	0	0	0	522	
14	0	0	0	0	526	
15	0	0	0	0	529	
0	0	0	0	0	529	
1	0	0	0	0	535	
2	0	0	0	0	517	
3	0	0	0	0	521	
4	0	0	0	0	528	
5	0	0	0	0	525	
6	0	0	0	0	517	
7	0	0	0	0	510	
8	0	0	0	0	512	
9	0	0	0	0	526	
10	0	0	0	0	506	
11	0	0	0	0	513	
12	0	0	0	0	504	
13	0	0	0	0	513	
14	0	0	0	0	509	
15	0	0	0	0	506	
0	0	0	0	0	511	
1	0	0	0	0	505	
2	0	0	0	0	505	
3	0	0	0	0	509	
4	0	0	0	0	498	
5	0	0	0	0	496	
6	0	0	0	0	513	
7	0	0	0	0	509	
8	0	0	0	0	501	
9	0	0	0	0	508	
10	0	0	0	0	495	
11	0	0	0	0	502	
12	0	0	0	0	503	
13	0	0	0	0	497	
14	0	0	0	0	515	
15	0	0	0	0	507	
0	0	0	0	0	504	
1	0	0	0	0	516	
2	0	0	0	0	523	
3	0	0	0	0	521	
4	0	0	0	0	546	
5	0	0	0	0	540	
6	0	0	0	0	531	
7	0	0	0	0	515	
8	0	0	0	0	496	
9	0	0	0	0	474	
10	0	0	0	0	480	
11	0	0	0	0	489	
12	0	0	0	0	488	
13	0	0	0	0	490	
14	0	0	0	0	469	
15	0	0	0	0	423	
0	0	0	0	0	553	
1	0	0	0	0	791	
2	0	0	0	0	897	
3	0	0	0	0	659	
4	0	0	0	0	482	
5	0	0	0	0	401	
6	0	0	0	0	398	
7	0	0	0	0	400	
8	0	0	0	0	406	
9	0	0	0	0	422	
10	0	0	0	0	437	
11	0	0	0	0	432	
12	0	0	0	0	446	
13	0	0	0	0	466	
14	0	0	0	0	467	
15	0	0	0	0	479	
0	0	0	0	0	482	
1	0	0	0	0	482	
2	0	0	0	0	483	
3	0	0	0	0	487	
4	0	0	0	0	500	
5	0	0	0	0	506	
6	0	0	0	0	496	
7	0	0	0	0	511	
8	0	0	0	0	512	
9	0	0	0	0	512	
10	0	0	0	0	516	
11	0	0	0	0	514	
12	0	0	0	0	518	
13	0	0	0	0	519	
14	0	0	0	0	524	
15	0	0	0	0	522	
0	0	0	0	0	522	
1	0	0	0	0	517	
2	0	0	0	0	510	
3	0	0	0	0	492	
4	0	0	0	0	480	
5	0	0	0	0	472	
6	0	0	0	0	476	
7	0	0	0	0	469	
8	0	0	0	0	484	
9	0	0	0	0	480	
10	0	0	0	0	490	
11	0	0	0	0	484	
12	0	0	0	0	494	
13	0	0	0	0	494	
14	0	0	0	0	502	
15	0	0	0	0	497	
0	0	0	0	0	500	
1	0	0	0	0	505	
2	0	0	0	0	502	
3	0	0	0	0	508	
4	0	0	0	0	517	
5	0	0	0	0	513	
6	0	0	0	0	517	
7	0	0	0	0	517	
8	0	0	0	0	518	
9	0	0	0	0	517	
10	0	0	0	0	516	
11	0	0	0	0	527	
12	0	0	0	0	514	
13	0	0	0	0	514	
14	0	0	0	0	519	
15	0	0	0	0	517	
0	0	0	0	0	506	
1	0	0	0	0	520	
2	0	0	0	0	506	
3	0	0	0	0	523	
4	0	0	0	0	508	
5	0	0	0	0	513	
6	0	0	0	0	519	
7	0	0	0	0	505	
8	0	0	0	0	513	
9	0	0	0	0	514	
10	0	0	0	0	525	
11	0	0	0	0	505	
12	0	0	0	0	513	
13	0	0	0	0	523	
14	0	0	0	0	518	
15	0	0	0	0	519	
0	0	0	0	0	509	
1	0	0	0	0	517	
2	0	0	0	0	511	
3	0	0	0	0	521	
4	0	0	0	0	518	
5	0	0	0	0	513	
6	0	0	0	0	504	
7	0	0	0	0	520	
8	0	0	0	0	514	
9	0	0	0	0	506	
10	0	0	0	0	504	
11	0	0	0	0	517	
12	0	0	0	0	507	
13	0	0	0	0	511	
14	0	0	0	0	510	
15	0	0	0	0	520	
0	0	0	0	0	503	
1	0	0	0	0	511	
2	0	0	0	0	506	
3	0	0	0	0	508	
4	0	0	0	0	504	
5	0	0	0	0	498	
6	0	0	0	0	498	
7	0	0	0	0	506	
8	0	0	0	0	512	
9	0	0	0	0	509	
10	0	0	0	0	519	
11	0	0	0	0	551	
12	0	0	0	0	528	
13	0	0	0	0	528	
14	0	0	0	0	499	
15	0	0	0	0	496	
0	0	0	0	0	480	
1	0	0	0	0	492	
2	0	0	0	0	491	
3	0	0	0	0	499	
4	0	0	0	0	492	
5	0	0	0	0	446	
6	0	0	0	0	479	
7	0	0	0	0	677	
8	0	0	0	0	901	
9	0	0	0	0	772	
10	0	0	0	0	559	
11	0	0	0	0	446	
12	0	0	0	0	400	
13	0	0	0	0	414	
14	0	0	0	0	409	
15	0	0	0	0	433	
0	0	0	0	0	439	
1	0	0	0	0	447	
2	0	0	0	0	454	
3	0	0	0	0	463	
4	0	0	0	0	464	
5	0	0	0	0	484	
6	0	0	0	0	483	
7	0	0	0	0	489	
8	0	0	0	0	495	
9	0	0	0	0	497	
10	0	0	0	0	488	
11	0	0	0	0	503	
12	0	0	0	0	504	
13	0	0	0	0	496	
14	0	0	0	0	492	
15	0	0	0	0	499	
0	0	0	0	0	506	
1	0	0	0	0	521	
2	0	0	0	0	501	
3	0	0	0	0	512	
4	0	0	0	0	511	
5	0	0	0	0	521	
6	0	0	0	0	517	
7	0	0	0	0	526	
8	0	0	0	0	508	
9	0	0	0	0	509	
10	0	0	0	0	481	
11	0	0	0	0	492	
12	0	0	0	0	474	
13	0	0	0	0	483	
14	0	0	0	0	484	
15	0	0	0	0	486	
0	0	0	0	0	491	
1	0	0	0	0	506	
2	0	0	0	0	494	
3	0	0	0	0	520	
4	0	0	0	0	511	
5	0	0	0	0	512	
6	0	0	0	0	511	
7	0	0	0	0	525	
8	0	0	0	0	531	
9	0	0	0	0	523	
10	0	0	0	0	507	
11	0	0	0	0	528	
12	0	0	0	0	517	
13	0	0	0	0	524	
14	0	0	0	0	518	
15	0	0	0	0	527	
0	0	0	0	0	506	
1	0	0	0	0	515	
2	0	0	0	0	504	
3	0	0	0	0	509	
4	0	0	0	0	499	
5	0	0	0	0	506	
6	0	0	0	0	499	
7	0	0	0	0	501	
8	0	0	0	0	494	
9	0	0	0	0	504	
10	0	0	0	0	502	
11	0	0	0	0	515	
12	0	0	0	0	500	
13	0	0	0	0	510	
14	0	0	0	0	514	
15	0	0	0	0	522	
0	0	0	0	0	508	
1	0	0	0	0	527	
2	0	0	0	0	515	
3	0	0	0	0	518	
4	0	0	0	0	512	
5	0	0	0	0	528	
6	0	0	0	0	516	
7	0	0	0	0	514	
8	0	0	0	0	512	
9	0	0	0	0	516	
10	0	0	0	0	508	
11	0	0	0	0	517	
12	0	0	0	0	498	
13	0	0	0	0	504	
14	0	0	0	0	503	
15	0	0	0	0	509	
0	0	0	0	0	495	
1	0	0	0	0	513	
2	0	0	0	0	495	
3	0	0	0	0	503	
4	0	0	0	0	488	
5	0	0	0	0	494	
6	0	0	0	0	488	
7	0	0	0	0	506	
8	0	0	0	0	499	
9	0	0	0	0	499	
10	0	0	0	0	494	
11	0	0	0	0	513	
12	0	0	0	0	498	
13	0	0	0	0	508	
14	0	0	0	0	501	
15	0	0	0	0	510	
0	0	0	0	0	507	
1	0	0	0	0	518	
2	0	0	0	0	503	
3	0	0	0	0	509	
4	0	0	0	0	500	
5	0	0	0	0	511	
6	0	0	0	0	495	
7	0	0	0	0	514	
8	0	0	0	0	524	
9	0	0	0	0	524	
10	0	0	0	0	529	
11	0	0	0	0	547	
12	0	0	0	0	513	
13	0	0	0	0	515	
14	0	0	0	0	493	
15	0	0	0	0	505	
0	0	0	0	0	489	
1	0	0	0	0	505	
2	0	0	0	0	492	
3	0	0	0	0	517	
4	0	0	0	0	488	
5	0	0	0	0	434	
6	0	0	0	0	556	
7	0	0	0	0	796	
8	0	0	0	0	895	
9	0	0	0	0	660	
10	0	0	0	0	496	
11	0	0	0	0	430	
12	0	0	0	0	412	
13	0	0	0	0	422	
14	0	0	0	0	423	
15	0	0	0	0	442	
0	0	0	0	0	439	
1	0	0	0	0	457	
2	0	0	0	0	456	
3	0	0	0	0	467	
4	0	0	0	0	472	
5	0	0	0	0	482	
6	0	0	0	0	476	
7	0	0	0	0	490	
8	0	0	0	0	487	
9	0	0	0	0	499	
10	0	0	0	0	486	
11	0	0	0	0	498	
12	0	0	0	0	498	
13	0	0	0	0	512	
14	0	0	0	0	502	
15	0	0	0	0	515	
0	0	0	0	0	504	
1	0	0	0	0	517	
2	0	0	0	0	516	
3	0	0	0	0	526	
4	0	0	0	0	509	
5	0	0	0	0	528	
6	0	0	0	0	516	
7	0	0	0	0	524	
8	0	0	0	0	500	
9	0	0	0	0	505	
10	0	0	0	0	480	
11	0	0	0	0	478	
12	0	0	0	0	465	
13	0	0	0	0	480	
14	0	0	0	0	467	
15	0	0	0	0	481	
0	0	0	0	0	476	
1	0	0	0	0	492	
2	0	0	0	0	482	
3	0	0	0	0	496	
4	0	0	0	0	486	
5	0	0	0	0	496	
6	0	0	0	0	483	
7	0	0	0	0	502	
8	0	0	0	0	491	
9	0	0	0	0	511	
10	0	0	0	0	493	
11	0	0	0	0	501	
12	0	0	0	0	508	
13	0	0	0	0	510	
14	0	0	0	0	491	
15	0	0	0	0	514	
0	0	0	0	0	504	
1	0	0	0	0	519	
2	0	0	0	0	497	
3	0	0	0	0	507	
4	0	0	0	0	500	
5	0	0	0	0	505	
6	0	0	0	0	500	
7	0	0	0	0	502	
8	0	0	0	0	488	
9	0	0	0	0	503	
10	0	0	0	0	513	
11	0	0	0	0	503	
12	0	0	0	0	482	
13	0	0	0	0	490	
14	0	0	0	0	481	
15	0	0	0	0	492	
0	0	0	0	0	476	
1	0	0	0	0	496	
2	0	0	0	0	484	
3	0	0	0	0	498	
4	0	0	0	0	483	
5	0	0	0	0	507	
6	0	0	0	0	492	
7	0	0	0	0	501	
8	0	0	0	0	487	
9	0	0	0	0	507	
10	0	0	0	0	498	
11	0	0	0	0	509	
12	0	0	0	0	494	
13	0	0	0	0	510	
14	0	0	0	0	497	
15	0	0	0	0	513	
0	0	0	0	0	502	
1	0	0	0	0	505	
2	0	0	0	0	501	
3	0	0	0	0	519	
4	0	0	0	0	510	
5	0	0	0	0	519	
6	0	0	0	0	504	
7	0	0	0	0	524	
8	0	0	0	0	525	
9	0	0	0	0	557	
10	0	0	0	0	509	
11	0	0	0	0	540	
12	0	0	0	0	499	
13	0	0	0	0	508	
14	0	0	0	0	491	
15	0	0	0	0	515	
0	0	0	0	0	497	
1	0	0	0	0	510	
2	0	0	0	0	497	
3	0	0	0	0	459	
4	0	0	0	0	517	
5	0	0	0	0	752	
6	0	0	0	0	862	
7	0	0	0	0	716	
8	0	0	0	0	536	
9	0	0	0	0	440	
10	0	0	0	0	409	
11	0	0	0	0	431	
12	0	0	0	0	416	
13	0	0	0	0	442	
14	0	0	0	0	442	
15	0	0	0	0	465	
0	0	0	0	0	460	
1	0	0	0	0	486	
2	0	0	0	0	465	
3	0	0	0	0	498	
4	0	0	0	0	486	
5	0	0	0	0	506	
6	0	0	0	0	500	
7	0	0	0	0	521	
8	0	0	0	0	503	
9	0	0	0	0	533	
10	0	0	0	0	528	
11	0	0	0	0	536	
12	0	0	0	0	523	
13	0	0	0	0	544	
14	0	0	0	0	538	
15	0	0	0	0	547	
0	0	0	0	0	542	
1	0	0	0	0	559	
2	0	0	0	0	550	
3	0	0	0	0	563	
4	0	0	0	0	543	
5	0	0	0	0	564	
6	0	0	0	0	533	
7	0	0	0	0	529	
8	0	0	0	0	502	
9	0	0	0	0	511	
10	0	0	0	0	476	
11	0	0	0	0	496	
12	0	0	0	0	487	
13	0	0	0	0	501	
14	0	0	0	0	488	
15	0	0	0	0	501	
0	0	0	0	0	494	
1	0	0	0	0	510	
2	0	0	0	0	498	
3	0	0	0	0	511	
4	0	0	0	0	507	
5	0	0	0	0	530	
6	0	0	0	0	507	
7	0	0	0	0	522	
8	0	0	0	0	504	
9	0	0	0	0	526	
10	0	0	0	0	503	
11	0	0	0	0	524	
12	0	0	0	0	507	
13	0	0	0	0	528	
14	0	0	0	0	504	
15	0	0	0	0	522	
0	0	0	0	0	505	
1	0	0	0	0	517	
2	0	0	0	0	500	
3	0	0	0	0	518	
4	0	0	0	0	496	
5	0	0	0	0	516	
6	0	0	0	0	505	
7	0	0	0	0	523	
8	0	0	0	0	503	
9	0	0	0	0	521	
10	0	0	0	0	504	
11	0	0	0	0	522	
12	0	0	0	0	504	
13	0	0	0	0	515	
14	0	0	0	0	500	
15	0	0	0	0	524	
0	0	0	0	0	501	
1	0	0	0	0	513	
2	0	0	0	0	490	
3	0	0	0	0	506	
4	0	0	0	0	490	
5	0	0	0	0	503	
6	0	0	0	0	491	
7	0	0	0	0	503	
8	0	0	0	0	484	
9	0	0	0	0	508	
10	0	0	0	0	483	
11	0	0	0	0	513	
12	0	0	0	0	505	
13	0	0	0	0	516	
14	0	0	0	0	515	
15	0	0	0	0	548	
0	0	0	0	0	512	
1	0	0	0	0	515	
2	0	0	0	0	473	
3	0	0	0	0	485	
4	0	0	0	0	462	
5	0	0	0	0	483	
6	0	0	0	0	467	
7	0	0	0	0	484	
8	0	0	0	0	458	
9	0	0	0	0	428	
10	0	0	0	0	460	
11	0	0	0	0	698	
12	0	0	0	0	892	
13	0	0	0	0	738	
14	0	0	0	0	523	
15	0	0	0	0	439	
0	0	0	0	0	386	
1	0	0	0	0	423	
2	0	0	0	0	407	
3	0	0	0	0	430	
4	0	0	0	0	429	
5	0	0	0	0	469	
6	0	0	0	0	457	
7	0	0	0	0	488	
8	0	0	0	0	476	
9	0	0	0	0	500	
10	0	0	0	0	484	
11	0	0	0	0	513	
12	0	0	0	0	496	
13	0	0	0	0	524	
14	0	0	0	0	507	
15	0	0	0	0	530	
0	0	0	0	0	504	
1	0	0	0	0	527	
2	0	0	0	0	509	
3	0	0	0	0	524	
4	0	0	0	0	501	
5	0	0	0	0	523	
6	0	0	0	0	504	
7	0	0	0	0	526	
8	0	0	0	0	509	
9	0	0	0	0	535	
10	0	0	0	0	508	
11	0	0	0	0	525	
12	0	0	0	0	502	
13	0	0	0	0	510	
14	0	0	0	0	477	
15	0	0	0	0	482	
0	0	0	0	0	466	
1	0	0	0	0	495	
2	0	0	0	0	467	
3	0	0	0	0	499	
4	0	0	0	0	480	
5	0	0	0	0	499	
6	0	0	0	0	484	
7	0	0	0	0	516	
8	0	0	0	0	495	
9	0	0	0	0	510	
10	0	0	0	0	502	
11	0	0	0	0	510	
12	0	0	0	0	495	
13	0	0	0	0	519	
14	0	0	0	0	505	
15	0	0	0	0	526	
0	0	0	0	0	511	
1	0	0	0	0	528	
2	0	0	0	0	508	
3	0	0	0	0	535	
4	0	0	0	0	511	
5	0	0	0	0	532	
6	0	0	0	0	512	
7	0	0	0	0	536	
8	0	0	0	0	511	
9	0	0	0	0	531	
10	0	0	0	0	507	
11	0	0	0	0	537	
12	0	0	0	0	516	
13	0	0	0	0	536	
14	0	0	0	0	515	
15	0	0	0	0	532	
0	0	0	0	0	520	
1	0	0	0	0	537	
2	0	0	0	0	517	
3	0	0	0	0	536	
4	0	0	0	0	513	
5	0	0	0	0	537	
6	0	0	0	0	520	
7	0	0	0	0	538	
8	0	0	0	0	518	
9	0	0	0	0	535	
10	0	0	0	0	510	
11	0	0	0	0	536	
12	0	0	0	0	512	
13	0	0	0	0	532	
14	0	0	0	0	508	
15	0	0	0	0	530	
0	0	0	0	0	514	
1	0	0	0	0	527	
2	0	0	0	0	507	
3	0	0	0	0	528	
4	0	0	0	0	505	
5	0	0	0	0	526	
6	0	0	0	0	508	
7	0	0	0	0	527	
8	0	0	0	0	503	
9	0	0	0	0	522	
10	0	0	0	0	505	
11	0	0	0	0	525	
12	0	0	0	0	500	
13	0	0	0	0	527	
14	0	0	0	0	511	
15	0	0	0	0	527	
0	0	0	0	0	506	
1	0	0	0	0	525	
2	0	0	0	0	504	
3	0	0	0	0	529	
4	0	0	0	0	519	
5	0	0	0	0	542	
6	0	0	0	0	544	
7	0	0	0	0	551	
8	0	0	0	0	526	
9	0	0	0	0	530	
10	0	0	0	0	490	
11	0	0	0	0	502	
12	0	0	0	0	481	
13	0	0	0	0	501	
14	0	0	0	0	484	
15	0	0	0	0	502	
0	0	0	0	0	452	
1	0	0	0	0	451	
2	0	0	0	0	596	
3	0	0	0	0	839	
4	0	0	0	0	812	
5	0	0	0	0	609	
6	0	0	0	0	455	
7	0	0	0	0	419	
8	0	0	0	0	402	
9	0	0	0	0	435	
10	0	0	0	0	409	
11	0	0	0	0	448	
12	0	0	0	0	435	
13	0	0	0	0	463	
14	0	0	0	0	451	
15	0	0	0	0	476	
0	0	0	0	0	464	
1	0	0	0	0	491	
2	0	0	0	0	472	
3	0	0	0	0	510	
4	0	0	0	0	479	
5	0	0	0	0	516	
6	0	0	0	0	488	
7	0	0	0	0	520	
8	0	0	0	0	499	
9	0	0	0	0	526	
10	0	0	0	0	507	
11	0	0	0	0	531	
12	0	0	0	0	509	
13	0	0	0	0	533	
14	0	0	0	0	504	
15	0	0	0	0	536	
0	0	0	0	0	512	
1	0	0	0	0	531	
2	0	0	0	0	498	
3	0	0	0	0	528	
4	0	0	0	0	487	
5	0	0	0	0	500	
6	0	0	0	0	464	
7	0	0	0	0	482	
8	0	0	0	0	452	
9	0	0	0	0	480	
10	0	0	0	0	451	
11	0	0	0	0	492	
12	0	0	0	0	467	
13	0	0	0	0	488	
14	0	0	0	0	476	
15	0	0	0	0	508	
0	0	0	0	0	483	
1	0	0	0	0	505	
2	0	0	0	0	485	
3	0	0	0	0	505	
4	0	0	0	0	487	
5	0	0	0	0	515	
6	0	0	0	0	485	
7	0	0	0	0	512	
8	0	0	0	0	485	
9	0	0	0	0	517	
10	0	0	0	0	492	
11	0	0	0	0	510	
12	0	0	0	0	486	
13	0	0	0	0	510	
14	0	0	0	0	489	
15	0	0	0	0	513	
0	0	0	0	0	492	
1	0	0	0	0	512	
2	0	0	0	0	492	
3	0	0	0	0	522	
4	0	0	0	0	485	
5	0	0	0	0	523	
6	0	0	0	0	498	
7	0	0	0	0	519	
8	0	0	0	0	493	
9	0	0	0	0	519	
10	0	0	0	0	497	
11	0	0	0	0	526	
12	0	0	0	0	500	
13	0	0	0	0	528	
14	0	0	0	0	504	
15	0	0	0	0	542	
0	0	0	0	0	502	
1	0	0	0	0	528	
2	0	0	0	0	502	
3	0	0	0	0	532	
4	0	0	0	0	499	
5	0	0	0	0	530	
6	0	0	0	0	498	
7	0	0	0	0	527	
8	0	0	0	0	510	
9	0	0	0	0	531	
10	0	0	0	0	491	
11	0	0	0	0	530	
12	0	0	0	0	500	
13	0	0	0	0	528	
14	0	0	0	0	500	
15	0	0	0	0	522	
0	0	0	0	0	493	
1	0	0	0	0	516	
2	0	0	0	0	495	
3	0	0	0	0	519	
4	0	0	0	0	494	
5	0	0	0	0	524	
6	0	0	0	0	480	
7	0	0	0	0	521	
8	0	0	0	0	491	
9	0	0	0	0	519	
10	0	0	0	0	490	
11	0	0	0	0	515	
12	0	0	0	0	492	
13	0	0	0	0	522	
14	0	0	0	0	495	
15	0	0	0	0	532	
0	0	0	0	0	513	
1	0	0	0	0	552	
2	0	0	0	0	505	
3	0	0	0	0	526	
4	0	0	0	0	481	
5	0	0	0	0	509	
6	0	0	0	0	476	
7	0	0	0	0	502	
8	0	0	0	0	461	
9	0	0	0	0	506	
10	0	0	0	0	461	
11	0	0	0	0	441	
12	0	0	0	0	504	
13	0	0	0	0	752	
14	0	0	0	0	831	
15	0	0	0	0	683	
0	0	0	0	0	500	
1	0	0	0	0	438	
2	0	0	0	0	391	
3	0	0	0	0	421	
4	0	0	0	0	408	
5	0	0	0	0	434	
6	0	0	0	0	416	
7	0	0	0	0	458	
8	0	0	0	0	431	
9	0	0	0	0	467	
10	0	0	0	0	448	
11	0	0	0	0	483	
12	0	0	0	0	448	
13	0	0	0	0	505	
14	0	0	0	0	464	
15	0	0	0	0	501	
0	0	0	0	0	488	
1	0	0	0	0	523	
2	0	0	0	0	492	
3	0	0	0	0	523	
4	0	0	0	0	499	
5	0	0	0	0	533	
6	0	0	0	0	508	
7	0	0	0	0	532	
8	0	0	0	0	516	
9	0	0	0	0	544	
10	0	0	0	0	517	
11	0	0	0	0	540	
12	0	0	0	0	521	
13	0	0	0	0	538	
14	0	0	0	0	515	
15	0	0	0	0	519	
0	0	0	0	0	483	
1	0	0	0	0	504	
2	0	0	0	0	473	
3	0	0	0	0	501	
4	0	0	0	0	469	
5	0	0	0	0	505	
6	0	0	0	0	487	
7	0	0	0	0	511	
8	0	0	0	0	481	
9	0	0	0	0	513	
10	0	0	0	0	478	
11	0	0	0	0	518	
12	0	0	0	0	498	
13	0	0	0	0	519	
14	0	0	0	0	497	
15	0	0	0	0	526	
0	0	0	0	0	509	
1	0	0	0	0	531	
2	0	0	0	0	513	
3	0	0	0	0	535	
4	0	0	0	0	509	
5	0	0	0	0	536	
6	0	0	0	0	515	
7	0	0	0	0	532	
8	0	0	0	0	506	
9	0	0	0	0	529	
10	0	0	0	0	504	
11	0	0	0	0	530	
12	0	0	0	0	499	
13	0	0	0	0	523	
14	0	0	0	0	503	
15	0	0	0	0	523	
0	0	0	0	0	492	
1	0	0	0	0	525	
2	0	0	0	0	500	
3	0	0	0	0	515	
4	0	0	0	0	492	
5	0	0	0	0	526	
6	0	0	0	0	493	
7	0	0	0	0	530	
8	0	0	0	0	495	
9	0	0	0	0	522	
10	0	0	0	0	497	
11	0	0	0	0	527	
12	0	0	0	0	499	
13	0	0	0	0	521	
14	0	0	0	0	498	
15	0	0	0	0	520	
0	0	0	0	0	503	
1	0	0	0	0	522	
2	0	0	0	0	497	
3	0	0	0	0	525	
4	0	0	0	0	508	
5	0	0	0	0	537	
6	0	0	0	0	514	
7	0	0	0	0	541	
8	0	0	0	0	541	
9	0	0	0	0	560	
10	0	0	0	0	526	
11	0	0	0	0	527	
12	0	0	0	0	494	
13	0	0	0	0	513	
14	0	0	0	0	489	
15	0	0	0	0	515	
0	0	0	0	0	490	
1	0	0	0	0	515	
2	0	0	0	0	447	
3	0	0	0	0	484	
4	0	0	0	0	633	
5	0	0	0	0	867	
6	0	0	0	0	783	
7	0	0	0	0	607	
8	0	0	0	0	439	
9	0	0	0	0	429	
10	0	0	0	0	397	
11	0	0	0	0	431	
12	0	0	0	0	411	
13	0	0	0	0	451	
14	0	0	0	0	439	
15	0	0	0	0	474	
0	0	0	0	0	446	
1	0	0	0	0	487	
2	0	0	0	0	459	
3	0	0	0	0	492	
4	0	0	0	0	470	
5	0	0	0	0	505	
6	0	0	0	0	482	
7	0	0	0	0	513	
8	0	0	0	0	488	
9	0	0	0	0	519	
10	0	0	0	0	495	
11	0	0	0	0	520	
12	0	0	0	0	492	
13	0	0	0	0	529	
14	0	0	0	0	500	
15	0	0	0	0	532	
0	0	0	0	0	499	
1	0	0	0	0	529	
2	0	0	0	0	509	
3	0	0	0	0	524	
4	0	0	0	0	495	
5	0	0	0	0	516	
6	0	0	0	0	485	
7	0	0	0	0	499	
8	0	0	0	0	464	
9	0	0	0	0	481	
10	0	0	0	0	459	
11	0	0	0	0	489	
12	0	0	0	0	460	
13	0	0	0	0	495	
14	0	0	0	0	470	
15	0	0	0	0	502	
0	0	0	0	0	472	
1	0	0	0	0	506	
2	0	0	0	0	475	
3	0	0	0	0	505	
4	0	0	0	0	480	
5	0	0	0	0	512	
6	0	0	0	0	485	
7	0	0	0	0	516	
8	0	0	0	0	492	
9	0	0	0	0	526	
10	0	0	0	0	493	
11	0	0	0	0	528	
12	0	0	0	0	504	
13	0	0	0	0	535	
14	0	0	0	0	497	
15	0	0	0	0	527	
0	0	0	0	0	494	
1	0	0	0	0	528	
2	0	0	0	0	495	
3	0	0	0	0	528	
4	0	0	0	0	491	
5	0	0	0	0	530	
6	0	0	0	0	503	
7	0	0	0	0	540	
8	0	0	0	0	506	
9	0	0	0	0	529	
10	0	0	0	0	508	
11	0	0	0	0	531	
12	0	0	0	0	505	
13	0	0	0	0	538	
14	0	0	0	0	512	
15	0	0	0	0	541	
0	0	0	0	0	509	
1	0	0	0	0	536	
2	0	0	0	0	503	
3	0	0	0	0	546	
4	0	0	0	0	504	
5	0	0	0	0	529	
6	0	0	0	0	508	
7	0	0	0	0	538	
8	0	0	0	0	507	
9	0	0	0	0	531	
10	0	0	0	0	500	
11	0	0	0	0	539	
12	0	0	0	0	510	
13	0	0	0	0	530	
14	0	0	0	0	505	
15	0	0	0	0	533	
0	0	0	0	0	498	
1	0	0	0	0	526	
2	0	0	0	0	500	
3	0	0	0	0	533	
4	0	0	0	0	495	
5	0	0	0	0	526	
6	0	0	0	0	501	
7	0	0	0	0	522	
8	0	0	0	0	493	
9	0	0	0	0	531	
10	0	0	0	0	498	
11	0	0	0	0	520	
12	0	0	0	0	494	
13	0	0	0	0	529	
14	0	0	0	0	499	
15	0	0	0	0	538	
0	0	0	0	0	500	
1	0	0	0	0	549	
2	0	0	0	0	531	
3	0	0	0	0	545	
4	0	0	0	0	503	
5	0	0	0	0	513	
6	0	0	0	0	475	
7	0	0	0	0	503	
8	0	0	0	0	467	
9	0	0	0	0	504	
10	0	0	0	0	468	
11	0	0	0	0	499	
12	0	0	0	0	416	
13	0	0	0	0	518	
14	0	0	0	0	727	
15	0	0	0	0	935	
0	0	0	0	0	691	
1	0	0	0	0	531	
2	0	0	0	0	408	
3	0	0	0	0	415	
4	0	0	0	0	388	
5	0	0	0	0	432	
6	0	0	0	0	410	
7	0	0	0	0	446	
8	0	0	0	0	427	
9	0	0	0	0	463	
10	0	0	0	0	444	
11	0	0	0	0	476	
12	0	0	0	0	459	
13	0	0	0	0	497	
14	0	0	0	0	465	
15	0	0	0	0	507	
0	0	0	0	0	472	
1	0	0	0	0	510	
2	0	0	0	0	482	
3	0	0	0	0	517	
4	0	0	0	0	494	
5	0	0	0	0	523	
6	0	0	0	0	489	
7	0	0	0	0	527	
8	0	0	0	0	504	
9	0	0	0	0	534	
10	0	0	0	0	507	
11	0	0	0	0	539	
12	0	0	0	0	510	
13	0	0	0	0	540	
14	0	0	0	0	509	
15	0	0	0	0	532	
0	0	0	0	0	485	
1	0	0	0	0	507	
2	0	0	0	0	464	
3	0	0	0	0	491	
4	0	0	0	0	458	
5	0	0	0	0	486	
6	0	0	0	0	466	
7	0	0	0	0	492	
8	0	0	0	0	471	
9	0	0	0	0	505	
10	0	0	0	0	477	
11	0	0	0	0	508	
12	0	0	0	0	480	
13	0	0	0	0	511	
14	0	0	0	0	490	
15	0	0	0	0	514	
0	0	0	0	0	491	
1	0	0	0	0	521	
2	0	0	0	0	493	
3	0	0	0	0	522	
4	0	0	0	0	494	
5	0	0	0	0	533	
6	0	0	0	0	502	
7	0	0	0	0	520	
8	0	0	0	0	496	
9	0	0	0	0	529	
10	0	0	0	0	498	
11	0	0	0	0	529	
12	0	0	0	0	494	
13	0	0	0	0	521	
14	0	0	0	0	490	
15	0	0	0	0	526	
0	0	0	0	0	496	
1	0	0	0	0	532	
2	0	0	0	0	508	
3	0	0	0	0	535	
4	0	0	0	0	507	
5	0	0	0	0	543	
6	0	0	0	0	509	
7	0	0	0	0	542	
8	0	0	0	0	507	
9	0	0	0	0	539	
10	0	0	0	0	505	
11	0	0	0	0	535	
12	0	0	0	0	506	
13	0	0	0	0	535	
14	0	0	0	0	507	
15	0	0	0	0	537	
0	0	0	0	0	504	
1	0	0	0	0	531	
2	0	0	0	0	498	
3	0	0	0	0	536	
4	0	0	0	0	502	
5	0	0	0	0	529	
6	0	0	0	0	495	
7	0	0	0	0	529	
8	0	0	0	0	495	
9	0	0	0	0	529	
10	0	0	0	0	498	
11	0	0	0	0	526	
12	0	0	0	0	497	
13	0	0	0	0	515	
14	0	0	0	0	496	
15	0	0	0	0	520	
0	0	0	0	0	499	
1	0	0	0	0	523	
2	0	0	0	0	496	
3	0	0	0	0	519	
4	0	0	0	0	487	
5	0	0	0	0	525	
6	0	0	0	0	486	
7	0	0	0	0	519	
8	0	0	0	0	491	
9	0	0	0	0	523	
10	0	0	0	0	489	
11	0	0	0	0	532	
12	0	0	0	0	495	
13	0	0	0	0	521	
14	0	0	0	0	491	
15	0	0	0	0	526	
0	0	0	0	0	493	
1	0	0	0	0	523	
2	0	0	0	0	496	
3	0	0	0	0	521	
4	0	0	0	0	495	
5	0	0	0	0	517	
6	0	0	0	0	493	
7	0	0	0	0	528	
8	0	0	0	0	488	
9	0	0	0	0	518	
10	0	0	0	0	482	
11	0	0	0	0	509	
12	0	0	0	0	478	
13	0	0	0	0	517	
14	0	0	0	0	478	
15	0	0	0	0	514	
0	0	0	0	0	428	
1	0	0	0	0	517	
2	0	0	0	0	715	
3	0	0	0	0	902	
4	0	0	0	0	688	
5	0	0	0	0	553	
6	0	0	0	0	411	
7	0	0	0	0	419	
8	0	0	0	0	391	
9	0	0	0	0	417	
10	0	0	0	0	408	
11	0	0	0	0	452	
12	0	0	0	0	428	
13	0	0	0	0	465	
14	0	0	0	0	435	
15	0	0	0	0	476	
0	0	0	0	0	450	
1	0	0	0	0	483	
2	0	0	0	0	451	
3	0	0	0	0	497	
4	0	0	0	0	470	
5	0	0	0	0	505	
6	0	0	0	0	472	
7	0	0	0	0	511	
8	0	0	0	0	483	
9	0	0	0	0	519	
10	0	0	0	0	496	
11	0	0	0	0	527	
12	0	0	0	0	500	
13	0	0	0	0	528	
14	0	0	0	0	510	
15	0	0	0	0	533	
0	0	0	0	0	504	
1	0	0	0	0	536	
2	0	0	0	0	504	
3	0	0	0	0	523	
4	0	0	0	0	483	
5	0	0	0	0	487	
6	0	0	0	0	459	
7	0	0	0	0	480	
8	0	0	0	0	452	
9	0	0	0	0	479	
10	0	0	0	0	460	
11	0	0	0	0	497	
12	0	0	0	0	467	
13	0	0	0	0	504	
14	0	0	0	0	471	
15	0	0	0	0	509	
0	0	0	0	0	488	
1	0	0	0	0	521	
2	0	0	0	0	494	
3	0	0	0	0	519	
4	0	0	0	0	495	
5	0	0	0	0	527	
6	0	0	0	0	498	
7	0	0	0	0	529	
8	0	0	0	0	503	
9	0	0	0	0	540	
10	0	0	0	0	505	
11	0	0	0	0	534	
12	0	0	0	0	499	
13	0	0	0	0	536	
14	0	0	0	0	505	
15	0	0	0	0	529	
0	0	0	0	0	506	
1	0	0	0	0	534	
2	0	0	0	0	505	
3	0	0	0	0	526	
4	0	0	0	0	501	
5	0	0	0	0	520	
6	0	0	0	0	493	
7	0	0	0	0	522	
8	0	0	0	0	492	
9	0	0	0	0	520	
10	0	0	0	0	490	
11	0	0	0	0	516	
12	0	0	0	0	494	
13	0	0	0	0	523	
14	0	0	0	0	491	
15	0	0	0	0	520	
0	0	0	0	0	488	
1	0	0	0	0	521	
2	0	0	0	0	501	
3	0	0	0	0	525	
4	0	0	0	0	491	
5	0	0	0	0	531	
6	0	0	0	0	497	
7	0	0	0	0	525	
8	0	0	0	0	493	
9	0	0	0	0	529	
10	0	0	0	0	497	
11	0	0	0	0	521	
12	0	0	0	0	496	
13	0	0	0	0	526	
14	0	0	0	0	495	
15	0	0	0	0	523	
0	0	0	0	0	503	
1	0	0	0	0	531	
2	0	0	0	0	497	
3	0	0	0	0	527	
4	0	0	0	0	492	
5	0	0	0	0	524	
6	0	0	0	0	498	
7	0	0	0	0	519	
8	0	0	0	0	504	
9	0	0	0	0	527	
10	0	0	0	0	494	
11	0	0	0	0	530	
12	0	0	0	0	530	
13	0	0	0	0	560	
14	0	0	0	0	512	
15	0	0	0	0	545	
0	0	0	0	0	497	
1	0	0	0	0	515	
2	0	0	0	0	497	
3	0	0	0	0	519	
4	0	0	0	0	489	
5	0	0	0	0	523	
6	0	0	0	0	492	
7	0	0	0	0	467	
8	0	0	0	0	516	
9	0	0	0	0	759	
10	0	0	0	0	892	
11	0	0	0	0	737	
12	0	0	0	0	532	
13	0	0	0	0	457	
14	0	0	0	0	411	
15	0	0	0	0	446	
0	0	0	0	0	427	
1	0	0	0	0	462	
2	0	0	0	0	439	
3	0	0	0	0	470	
4	0	0	0	0	459	
5	0	0	0	0	490	
6	0	0	0	0	469	
7	0	0	0	0	511	
8	0	0	0	0	483	
9	0	0	0	0	511	
10	0	0	0	0	490	
11	0	0	0	0	520	
12	0	0	0	0	496	
13	0	0	0	0	532	
14	0	0	0	0	508	
15	0	0	0	0	531	
0	0	0	0	0	504	
1	0	0	0	0	538	
2	0	0	0	0	506	
3	0	0	0	0	536	
4	0	0	0	0	521	
5	0	0	0	0	537	
6	0	0	0	0	509	
7	0	0	0	0	540	
8	0	0	0	0	516	
9	0	0	0	0	530	
10	0	0	0	0	498	
11	0	0	0	0	518	
12	0	0	0	0	460	
13	0	0	0	0	491	
14	0	0	0	0	457	
15	0	0	0	0	480	
0	0	0	0	0	459	
1	0	0	0	0	488	
2	0	0	0	0	459	
3	0	0	0	0	495	
4	0	0	0	0	472	
5	0	0	0	0	500	
6	0	0	0	0	482	
7	0	0	0	0	505	
8	0	0	0	0	486	
9	0	0	0	0	517	
10	0	0	0	0	491	
11	0	0	0	0	512	
12	0	0	0	0	490	
13	0	0	0	0	512	
14	0	0	0	0	489	
15	0	0	0	0	523	
0	0	0	0	0	499	
1	0	0	0	0	524	
2	0	0	0	0	499	
3	0	0	0	0	530	
4	0	0	0	0	496	
5	0	0	0	0	523	
6	0	0	0	0	493	
7	0	0	0	0	526	
8	0	0	0	0	495	
9	0	0	0	0	527	
10	0	0	0	0	500	
11	0	0	0	0	521	
12	0	0	0	0	503	
13	0	0	0	0	522	
14	0	0	0	0	500	
15	0	0	0	0	527	
0	0	0	0	0	502	
1	0	0	0	0	528	
2	0	0	0	0	502	
3	0	0	0	0	536	
4	0	0	0	0	504	
5	0	0	0	0	522	
6	0	0	0	0	509	
7	0	0	0	0	537	
8	0	0	0	0	508	
9	0	0	0	0	535	
10	0	0	0	0	501	
11	0	0	0	0	533	
12	0	0	0	0	507	
